[Info]
Number of Regions=0001
Version=1.3.1

[Region 1]
Region Name=VB
Dimension 1 name=Binding Energy [eV]
Dimension 1 size=801
Dimension 1 scale=30 29.95 29.9 29.85 29.8 29.75 29.7 29.65 29.6 29.55 29.5 29.45 29.4 29.35 29.3 29.25 29.2 29.15 29.1 29.05 29 28.95 28.9 28.85 28.8 28.75 28.7 28.65 28.6 28.55 28.5 28.45 28.4 28.35 28.3 28.25 28.2 28.15 28.1 28.05 28 27.95 27.9 27.85 27.8 27.75 27.7 27.65 27.6 27.55 27.5 27.45 27.4 27.35 27.3 27.25 27.2 27.15 27.1 27.05 27 26.95 26.9 26.85 26.8 26.75 26.7 26.65 26.6 26.55 26.5 26.45 26.4 26.35 26.3 26.25 26.2 26.15 26.1 26.05 26 25.95 25.9 25.85 25.8 25.75 25.7 25.65 25.6 25.55 25.5 25.45 25.4 25.35 25.3 25.25 25.2 25.15 25.1 25.05 25 24.95 24.9 24.85 24.8 24.75 24.7 24.65 24.6 24.55 24.5 24.45 24.4 24.35 24.3 24.25 24.2 24.15 24.1 24.05 24 23.95 23.9 23.85 23.8 23.75 23.7 23.65 23.6 23.55 23.5 23.45 23.4 23.35 23.3 23.25 23.2 23.15 23.1 23.05 23 22.95 22.9 22.85 22.8 22.75 22.7 22.65 22.6 22.55 22.5 22.45 22.4 22.35 22.3 22.25 22.2 22.15 22.1 22.05 22 21.95 21.9 21.85 21.8 21.75 21.7 21.65 21.6 21.55 21.5 21.45 21.4 21.35 21.3 21.25 21.2 21.15 21.1 21.05 21 20.95 20.9 20.85 20.8 20.75 20.7 20.65 20.6 20.55 20.5 20.45 20.4 20.35 20.3 20.25 20.2 20.15 20.1 20.05 20 19.95 19.9 19.85 19.8 19.75 19.7 19.65 19.6 19.55 19.5 19.45 19.4 19.35 19.3 19.25 19.2 19.15 19.1 19.05 19 18.95 18.9 18.85 18.8 18.75 18.7 18.65 18.6 18.55 18.5 18.45 18.4 18.35 18.3 18.25 18.2 18.15 18.1 18.05 18 17.95 17.9 17.85 17.8 17.75 17.7 17.65 17.6 17.55 17.5 17.45 17.4 17.35 17.3 17.25 17.2 17.15 17.1 17.05 17 16.95 16.9 16.85 16.8 16.75 16.7 16.65 16.6 16.55 16.5 16.45 16.4 16.35 16.3 16.25 16.2 16.15 16.1 16.05 16 15.95 15.9 15.85 15.8 15.75 15.7 15.65 15.6 15.55 15.5 15.45 15.4 15.35 15.3 15.25 15.2 15.15 15.1 15.05 15 14.95 14.9 14.85 14.8 14.75 14.7 14.65 14.6 14.55 14.5 14.45 14.4 14.35 14.3 14.25 14.2 14.15 14.1 14.05 14 13.95 13.9 13.85 13.8 13.75 13.7 13.65 13.6 13.55 13.5 13.45 13.4 13.35 13.3 13.25 13.2 13.15 13.1 13.05 13 12.95 12.9 12.85 12.8 12.75 12.7 12.65 12.6 12.55 12.5 12.45 12.4 12.35 12.3 12.25 12.2 12.15 12.1 12.05 12 11.95 11.9 11.85 11.8 11.75 11.7 11.65 11.6 11.55 11.5 11.45 11.4 11.35 11.3 11.25 11.2 11.15 11.1 11.05 11 10.95 10.9 10.85 10.8 10.75 10.7 10.65 10.6 10.55 10.5 10.45 10.4 10.35 10.3 10.25 10.2 10.15 10.1 10.05 10 9.94999999999999 9.90000000000001 9.84999999999999 9.80000000000001 9.75 9.69999999999999 9.65000000000001 9.59999999999999 9.55000000000001 9.5 9.44999999999999 9.40000000000001 9.34999999999999 9.30000000000001 9.25 9.19999999999999 9.15000000000001 9.09999999999999 9.05000000000001 9 8.94999999999999 8.90000000000001 8.84999999999999 8.80000000000001 8.75 8.69999999999999 8.65000000000001 8.59999999999999 8.55000000000001 8.5 8.44999999999999 8.40000000000001 8.34999999999999 8.30000000000001 8.25 8.19999999999999 8.15000000000001 8.09999999999999 8.05000000000001 8 7.94999999999999 7.90000000000001 7.84999999999999 7.80000000000001 7.75 7.69999999999999 7.65000000000001 7.59999999999999 7.55000000000001 7.5 7.44999999999999 7.40000000000001 7.34999999999999 7.30000000000001 7.25 7.19999999999999 7.15000000000001 7.09999999999999 7.05000000000001 7 6.94999999999999 6.90000000000001 6.84999999999999 6.80000000000001 6.75 6.69999999999999 6.65000000000001 6.59999999999999 6.55000000000001 6.5 6.44999999999999 6.40000000000001 6.34999999999999 6.30000000000001 6.25 6.19999999999999 6.15000000000001 6.09999999999999 6.05000000000001 6 5.94999999999999 5.90000000000001 5.84999999999999 5.80000000000001 5.75 5.69999999999999 5.65000000000001 5.59999999999999 5.55000000000001 5.5 5.44999999999999 5.40000000000001 5.34999999999999 5.30000000000001 5.25 5.19999999999999 5.15000000000001 5.09999999999999 5.05000000000001 5 4.94999999999999 4.90000000000001 4.84999999999999 4.80000000000001 4.75 4.69999999999999 4.65000000000001 4.59999999999999 4.55000000000001 4.5 4.44999999999999 4.40000000000001 4.34999999999999 4.30000000000001 4.25 4.19999999999999 4.15000000000001 4.09999999999999 4.05000000000001 4 3.94999999999999 3.90000000000001 3.84999999999999 3.80000000000001 3.75 3.69999999999999 3.65000000000001 3.59999999999999 3.55000000000001 3.5 3.44999999999999 3.40000000000001 3.34999999999999 3.30000000000001 3.25 3.19999999999999 3.15000000000001 3.09999999999999 3.05000000000001 3 2.94999999999999 2.90000000000001 2.84999999999999 2.80000000000001 2.75 2.69999999999999 2.65000000000001 2.59999999999999 2.55000000000001 2.5 2.44999999999999 2.40000000000001 2.34999999999999 2.30000000000001 2.25 2.19999999999999 2.15000000000001 2.09999999999999 2.05000000000001 2 1.94999999999999 1.90000000000001 1.84999999999999 1.80000000000001 1.75 1.69999999999999 1.65000000000001 1.59999999999999 1.55000000000001 1.5 1.44999999999999 1.40000000000001 1.34999999999999 1.30000000000001 1.25 1.19999999999999 1.15000000000001 1.09999999999999 1.05000000000001 1 0.949999999999989 0.900000000000006 0.849999999999994 0.800000000000011 0.75 0.699999999999989 0.650000000000006 0.599999999999994 0.550000000000011 0.5 0.449999999999989 0.400000000000006 0.349999999999994 0.300000000000011 0.25 0.199999999999989 0.150000000000006 0.0999999999999943 0.0500000000000114 0 -0.0500000000000114 -0.0999999999999943 -0.150000000000006 -0.199999999999989 -0.25 -0.300000000000011 -0.349999999999994 -0.400000000000006 -0.449999999999989 -0.5 -0.550000000000011 -0.599999999999994 -0.650000000000006 -0.699999999999989 -0.75 -0.800000000000011 -0.849999999999994 -0.900000000000006 -0.949999999999989 -1 -1.05000000000001 -1.09999999999999 -1.15000000000001 -1.19999999999999 -1.25 -1.30000000000001 -1.34999999999999 -1.40000000000001 -1.44999999999999 -1.5 -1.55000000000001 -1.59999999999999 -1.65000000000001 -1.69999999999999 -1.75 -1.80000000000001 -1.84999999999999 -1.90000000000001 -1.94999999999999 -2 -2.05000000000001 -2.09999999999999 -2.15000000000001 -2.19999999999999 -2.25 -2.30000000000001 -2.34999999999999 -2.40000000000001 -2.44999999999999 -2.5 -2.55000000000001 -2.59999999999999 -2.65000000000001 -2.69999999999999 -2.75 -2.80000000000001 -2.84999999999999 -2.90000000000001 -2.94999999999999 -3 -3.05000000000001 -3.09999999999999 -3.15000000000001 -3.19999999999999 -3.25 -3.30000000000001 -3.34999999999999 -3.40000000000001 -3.44999999999999 -3.5 -3.55000000000001 -3.59999999999999 -3.65000000000001 -3.69999999999999 -3.75 -3.80000000000001 -3.84999999999999 -3.90000000000001 -3.94999999999999 -4 -4.05000000000001 -4.09999999999999 -4.15000000000001 -4.19999999999999 -4.25 -4.30000000000001 -4.34999999999999 -4.40000000000001 -4.44999999999999 -4.5 -4.55000000000001 -4.59999999999999 -4.65000000000001 -4.69999999999999 -4.75 -4.80000000000001 -4.84999999999999 -4.90000000000001 -4.94999999999999 -5 -5.05000000000001 -5.09999999999999 -5.15000000000001 -5.19999999999999 -5.25 -5.30000000000001 -5.34999999999999 -5.40000000000001 -5.44999999999999 -5.5 -5.55000000000001 -5.59999999999999 -5.65000000000001 -5.69999999999999 -5.75 -5.80000000000001 -5.84999999999999 -5.90000000000001 -5.94999999999999 -6 -6.05000000000001 -6.09999999999999 -6.15000000000001 -6.19999999999999 -6.25 -6.30000000000001 -6.34999999999999 -6.40000000000001 -6.44999999999999 -6.5 -6.55000000000001 -6.59999999999999 -6.65000000000001 -6.69999999999999 -6.75 -6.80000000000001 -6.84999999999999 -6.90000000000001 -6.94999999999999 -7 -7.05000000000001 -7.09999999999999 -7.15000000000001 -7.19999999999999 -7.25 -7.30000000000001 -7.34999999999999 -7.40000000000001 -7.44999999999999 -7.5 -7.55000000000001 -7.59999999999999 -7.65000000000001 -7.69999999999999 -7.75 -7.80000000000001 -7.84999999999999 -7.90000000000001 -7.94999999999999 -8 -8.05000000000001 -8.09999999999999 -8.15000000000001 -8.19999999999999 -8.25 -8.30000000000001 -8.34999999999999 -8.40000000000001 -8.44999999999999 -8.5 -8.55000000000001 -8.59999999999999 -8.65000000000001 -8.69999999999999 -8.75 -8.80000000000001 -8.84999999999999 -8.90000000000001 -8.94999999999999 -9 -9.05000000000001 -9.09999999999999 -9.15000000000001 -9.19999999999999 -9.25 -9.30000000000001 -9.34999999999999 -9.40000000000001 -9.44999999999999 -9.5 -9.55000000000001 -9.59999999999999 -9.65000000000001 -9.69999999999999 -9.75 -9.80000000000001 -9.84999999999999 -9.90000000000001 -9.94999999999999 -10

[Info 1]
Region Name=VB
Lens Mode=Transmission
Pass Energy=50
Number of Sweeps=10
Excitation Energy=153
Energy Scale=Binding
Acquisition Mode=Swept
Energy Unit=Kinetic
Center Energy=143
Low Energy=123
High Energy=163
Energy Step=0.05
Step Time=203
Detector First X-Channel=43
Detector Last X-Channel=659
Detector First Y-Channel=91
Detector Last Y-Channel=398
Number of Slices=1
File=Z:\XPS_data\2023\Mar2023\KIT\Ag_0002.txt,.pxt,.ibw
Sequence=D:\old files\data2\data\Cu-HTTP_Mar_23.seq
Spectrum Name=Ag__002
Instrument=R3000-6MS014
Location=Scienta
User=AN
Sample=Ag
Comments=;
Date=2023-03-08
Time=15:30:27
Time per Spectrum Channel=225.33
DetectorMode=ADC
[Run Mode Information 1]



[Data 1]
 3.00000000000000E+0001  3.66266550123692E+0000
 2.99500000000000E+0001  3.31459234654903E+0000
 2.99000000000000E+0001  3.23482005298138E+0000
 2.98500000000000E+0001  3.35422047972679E+0000
 2.98000000000000E+0001  3.50475406646729E+0000
 2.97500000000000E+0001  3.63206753134727E+0000
 2.97000000000000E+0001  3.12571620941162E+0000
 2.96500000000000E+0001  3.11565870046616E+0000
 2.96000000000000E+0001  3.28529769182205E+0000
 2.95500000000000E+0001  3.07951352000236E+0000
 2.95000000000000E+0001  2.62940143048763E+0000
 2.94500000000000E+0001  2.38554352521896E+0000
 2.94000000000000E+0001  2.42095354199409E+0000
 2.93500000000000E+0001  2.61485190689564E+0000
 2.93000000000000E+0001  2.48409117758274E+0000
 2.92500000000000E+0001  2.38842275738716E+0000
 2.92000000000000E+0001  2.46667067706585E+0000
 2.91500000000000E+0001  2.31553335487843E+0000
 2.91000000000000E+0001  2.23468993604183E+0000
 2.90500000000000E+0001  2.11366702616215E+0000
 2.90000000000000E+0001  2.19971781969070E+0000
 2.89500000000000E+0001  2.03268237411976E+0000
 2.89000000000000E+0001  2.31623052060604E+0000
 2.88500000000000E+0001  2.21793137490749E+0000
 2.88000000000000E+0001  2.00129433721304E+0000
 2.87500000000000E+0001  2.27588658034801E+0000
 2.87000000000000E+0001  2.00062771886587E+0000
 2.86500000000000E+0001  2.26478563249111E+0000
 2.86000000000000E+0001  2.03782550990582E+0000
 2.85500000000000E+0001  2.24894687533379E+0000
 2.85000000000000E+0001  2.50425918400288E+0000
 2.84500000000000E+0001  2.31301398575306E+0000
 2.84000000000000E+0001  2.03122186660767E+0000
 2.83500000000000E+0001  2.08848619461060E+0000
 2.83000000000000E+0001  1.99886241555214E+0000
 2.82500000000000E+0001  2.29901018738747E+0000
 2.82000000000000E+0001  2.28629161417484E+0000
 2.81500000000000E+0001  1.96198201924562E+0000
 2.81000000000000E+0001  2.29244166612625E+0000
 2.80500000000000E+0001  2.18866746127605E+0000
 2.80000000000000E+0001  1.96552415192127E+0000
 2.79500000000000E+0001  2.18150199949741E+0000
 2.79000000000000E+0001  1.91206286102533E+0000
 2.78500000000000E+0001  2.07614804804325E+0000
 2.78000000000000E+0001  2.10113921761513E+0000
 2.77500000000000E+0001  2.34490393102169E+0000
 2.77000000000000E+0001  2.22701602429152E+0000
 2.76500000000000E+0001  2.46421316266060E+0000
 2.76000000000000E+0001  2.23941756784916E+0000
 2.75500000000000E+0001  2.25652363896370E+0000
 2.75000000000000E+0001  2.34524212032557E+0000
 2.74500000000000E+0001  2.16961623728275E+0000
 2.74000000000000E+0001  2.13089036941528E+0000
 2.73500000000000E+0001  2.19177383184433E+0000
 2.73000000000000E+0001  2.22254675626755E+0000
 2.72500000000000E+0001  2.30147020518780E+0000
 2.72000000000000E+0001  2.53185197710991E+0000
 2.71500000000000E+0001  2.25859765708446E+0000
 2.71000000000000E+0001  2.37336687743664E+0000
 2.70500000000000E+0001  2.56138157844543E+0000
 2.70000000000000E+0001  2.72514331340790E+0000
 2.69500000000000E+0001  2.09287858009338E+0000
 2.69000000000000E+0001  2.16720068454742E+0000
 2.68500000000000E+0001  2.54166665673256E+0000
 2.68000000000000E+0001  2.34556777775288E+0000
 2.67500000000000E+0001  2.36257047951221E+0000
 2.67000000000000E+0001  2.23986265063286E+0000
 2.66500000000000E+0001  2.46151624619961E+0000
 2.66000000000000E+0001  2.55828358232975E+0000
 2.65500000000000E+0001  2.41815313696861E+0000
 2.65000000000000E+0001  2.25711219012737E+0000
 2.64500000000000E+0001  2.54107356071472E+0000
 2.64000000000000E+0001  2.24019829928875E+0000
 2.63500000000000E+0001  2.26626796275377E+0000
 2.63000000000000E+0001  2.20453549921513E+0000
 2.62500000000000E+0001  2.28583087027073E+0000
 2.62000000000000E+0001  2.24653556942940E+0000
 2.61500000000000E+0001  2.22120447456837E+0000
 2.61000000000000E+0001  2.26457285881042E+0000
 2.60500000000000E+0001  2.55217237770557E+0000
 2.60000000000000E+0001  2.45077836513519E+0000
 2.59500000000000E+0001  2.86909189820290E+0000
 2.59000000000000E+0001  2.38155378401279E+0000
 2.58500000000000E+0001  2.76861149072647E+0000
 2.58000000000000E+0001  2.63215509057045E+0000
 2.57500000000000E+0001  2.43684473633766E+0000
 2.57000000000000E+0001  2.51955953240395E+0000
 2.56500000000000E+0001  2.36961326003075E+0000
 2.56000000000000E+0001  2.29727693647146E+0000
 2.55500000000000E+0001  2.34702840447426E+0000
 2.55000000000000E+0001  2.17426633834839E+0000
 2.54500000000000E+0001  2.48060998320580E+0000
 2.54000000000000E+0001  2.47345998883247E+0000
 2.53500000000000E+0001  2.44213882088661E+0000
 2.53000000000000E+0001  2.53516881167889E+0000
 2.52500000000000E+0001  2.90190277993679E+0000
 2.52000000000000E+0001  2.69942744076252E+0000
 2.51500000000000E+0001  2.12882409989834E+0000
 2.51000000000000E+0001  2.55086663365364E+0000
 2.50500000000000E+0001  2.35868926346302E+0000
 2.50000000000000E+0001  2.84593725204468E+0000
 2.49500000000000E+0001  2.64245490729809E+0000
 2.49000000000000E+0001  2.48469877243042E+0000
 2.48500000000000E+0001  2.62478529661894E+0000
 2.48000000000000E+0001  2.41402375698090E+0000
 2.47500000000000E+0001  2.47363732010126E+0000
 2.47000000000000E+0001  2.55981604754925E+0000
 2.46500000000000E+0001  2.41552107036114E+0000
 2.46000000000000E+0001  2.52233125269413E+0000
 2.45500000000000E+0001  2.39985303580761E+0000
 2.45000000000000E+0001  2.35249409079552E+0000
 2.44500000000000E+0001  2.57583066821098E+0000
 2.44000000000000E+0001  2.24587540328503E+0000
 2.43500000000000E+0001  2.54156544804573E+0000
 2.43000000000000E+0001  2.32583221793175E+0000
 2.42500000000000E+0001  2.75111046433449E+0000
 2.42000000000000E+0001  2.52912409603596E+0000
 2.41500000000000E+0001  2.43810041248798E+0000
 2.41000000000000E+0001  2.53062830865383E+0000
 2.40500000000000E+0001  2.77500836551189E+0000
 2.40000000000000E+0001  2.47545982897282E+0000
 2.39500000000000E+0001  2.24071332812309E+0000
 2.39000000000000E+0001  2.61735351383686E+0000
 2.38500000000000E+0001  2.48929701745510E+0000
 2.38000000000000E+0001  2.50403045117855E+0000
 2.37500000000000E+0001  2.44105602800846E+0000
 2.37000000000000E+0001  2.44047328829765E+0000
 2.36500000000000E+0001  2.09582099318504E+0000
 2.36000000000000E+0001  2.38583125174046E+0000
 2.35500000000000E+0001  2.63027331233025E+0000
 2.35000000000000E+0001  2.45813499391079E+0000
 2.34500000000000E+0001  2.02900424599648E+0000
 2.34000000000000E+0001  2.67948944866657E+0000
 2.33500000000000E+0001  2.38287705183029E+0000
 2.33000000000000E+0001  2.23036034405231E+0000
 2.32500000000000E+0001  2.52472445368767E+0000
 2.32000000000000E+0001  2.11096523702145E+0000
 2.31500000000000E+0001  2.17534963786602E+0000
 2.31000000000000E+0001  2.08291381597519E+0000
 2.30500000000000E+0001  2.09132062271237E+0000
 2.30000000000000E+0001  2.04281430691481E+0000
 2.29500000000000E+0001  1.98627035319805E+0000
 2.29000000000000E+0001  2.09247663617134E+0000
 2.28500000000000E+0001  2.34390191733837E+0000
 2.28000000000000E+0001  1.88704006373882E+0000
 2.27500000000000E+0001  2.37622688710690E+0000
 2.27000000000000E+0001  2.06924049556255E+0000
 2.26500000000000E+0001  2.19024147093296E+0000
 2.26000000000000E+0001  2.27491390705109E+0000
 2.25500000000000E+0001  2.45075997710228E+0000
 2.25000000000000E+0001  2.00793593376875E+0000
 2.24500000000000E+0001  2.17365461587906E+0000
 2.24000000000000E+0001  1.98960783332586E+0000
 2.23500000000000E+0001  2.18348034471273E+0000
 2.23000000000000E+0001  2.03787610679865E+0000
 2.22500000000000E+0001  2.12016777694225E+0000
 2.22000000000000E+0001  2.02133623510599E+0000
 2.21500000000000E+0001  2.48425470292568E+0000
 2.21000000000000E+0001  2.47164371609688E+0000
 2.20500000000000E+0001  2.15113289654255E+0000
 2.20000000000000E+0001  2.10773463547230E+0000
 2.19500000000000E+0001  2.07565022259951E+0000
 2.19000000000000E+0001  1.97929252684116E+0000
 2.18500000000000E+0001  1.90569129586220E+0000
 2.18000000000000E+0001  1.86469408869743E+0000
 2.17500000000000E+0001  2.19503960013390E+0000
 2.17000000000000E+0001  2.15187226235867E+0000
 2.16500000000000E+0001  2.11963707208633E+0000
 2.16000000000000E+0001  1.94309159368277E+0000
 2.15500000000000E+0001  2.01546561717987E+0000
 2.15000000000000E+0001  2.01792152225971E+0000
 2.14500000000000E+0001  2.34445370733738E+0000
 2.14000000000000E+0001  2.18843615055084E+0000
 2.13500000000000E+0001  2.18061738461256E+0000
 2.13000000000000E+0001  2.28401806950569E+0000
 2.12500000000000E+0001  2.31930118799210E+0000
 2.12000000000000E+0001  1.87170914560556E+0000
 2.11500000000000E+0001  1.98427464067936E+0000
 2.11000000000000E+0001  1.89902545511723E+0000
 2.10500000000000E+0001  1.89654272794724E+0000
 2.10000000000000E+0001  1.77214059233665E+0000
 2.09500000000000E+0001  1.86385652422905E+0000
 2.09000000000000E+0001  2.00430124998093E+0000
 2.08500000000000E+0001  1.69491715729237E+0000
 2.08000000000000E+0001  2.06621655821800E+0000
 2.07500000000000E+0001  2.05972430109978E+0000
 2.07000000000000E+0001  1.92402702569962E+0000
 2.06500000000000E+0001  2.20870897173882E+0000
 2.06000000000000E+0001  2.20790895819664E+0000
 2.05500000000000E+0001  2.10800357162952E+0000
 2.05000000000000E+0001  2.12702704966068E+0000
 2.04500000000000E+0001  1.92730323225260E+0000
 2.04000000000000E+0001  2.01892870664597E+0000
 2.03500000000000E+0001  1.97151574492455E+0000
 2.03000000000000E+0001  2.32675857841969E+0000
 2.02500000000000E+0001  2.39786240458488E+0000
 2.02000000000000E+0001  2.10565750300884E+0000
 2.01500000000000E+0001  1.68070156872272E+0000
 2.01000000000000E+0001  2.49533046782017E+0000
 2.00500000000000E+0001  1.88812613487244E+0000
 2.00000000000000E+0001  1.79914479702711E+0000
 1.99500000000000E+0001  2.32763688266277E+0000
 1.99000000000000E+0001  2.29481129348278E+0000
 1.98500000000000E+0001  2.19164170324802E+0000
 1.98000000000000E+0001  2.39084675908089E+0000
 1.97500000000000E+0001  2.19968607276678E+0000
 1.97000000000000E+0001  1.95448726415634E+0000
 1.96500000000000E+0001  2.15363737940788E+0000
 1.96000000000000E+0001  2.25603961944580E+0000
 1.95500000000000E+0001  2.04774788767099E+0000
 1.95000000000000E+0001  2.36220329999924E+0000
 1.94500000000000E+0001  2.30497604608536E+0000
 1.94000000000000E+0001  2.08670121431351E+0000
 1.93500000000000E+0001  1.82175806164742E+0000
 1.93000000000000E+0001  2.00386460870504E+0000
 1.92500000000000E+0001  2.01133388280869E+0000
 1.92000000000000E+0001  2.58744840323925E+0000
 1.91500000000000E+0001  2.43398520350456E+0000
 1.91000000000000E+0001  2.47376728057861E+0000
 1.90500000000000E+0001  2.21221290528774E+0000
 1.90000000000000E+0001  2.47491319477558E+0000
 1.89500000000000E+0001  2.47274625301361E+0000
 1.89000000000000E+0001  2.24026998877525E+0000
 1.88500000000000E+0001  2.80566252768040E+0000
 1.88000000000000E+0001  2.53133086860180E+0000
 1.87500000000000E+0001  2.55895958840847E+0000
 1.87000000000000E+0001  2.38789537549019E+0000
 1.86500000000000E+0001  2.64736120402813E+0000
 1.86000000000000E+0001  2.54980678856373E+0000
 1.85500000000000E+0001  2.37616756558418E+0000
 1.85000000000000E+0001  2.40566270053387E+0000
 1.84500000000000E+0001  2.21038177609444E+0000
 1.84000000000000E+0001  2.52498985826969E+0000
 1.83500000000000E+0001  2.27360098063946E+0000
 1.83000000000000E+0001  2.28705212473869E+0000
 1.82500000000000E+0001  2.52716626226902E+0000
 1.82000000000000E+0001  2.59533245861530E+0000
 1.81500000000000E+0001  2.29835583269596E+0000
 1.81000000000000E+0001  2.43601945042610E+0000
 1.80500000000000E+0001  2.14748165756464E+0000
 1.80000000000000E+0001  2.31907659769058E+0000
 1.79500000000000E+0001  2.44895276427269E+0000
 1.79000000000000E+0001  2.10742010176182E+0000
 1.78500000000000E+0001  2.24483180046082E+0000
 1.78000000000000E+0001  2.24882759153843E+0000
 1.77500000000000E+0001  2.32644864916801E+0000
 1.77000000000000E+0001  2.63245315849781E+0000
 1.76500000000000E+0001  2.35044395923614E+0000
 1.76000000000000E+0001  2.24834443628788E+0000
 1.75500000000000E+0001  2.49956712126732E+0000
 1.75000000000000E+0001  2.43707047402859E+0000
 1.74500000000000E+0001  2.51352399587631E+0000
 1.74000000000000E+0001  2.55467993766069E+0000
 1.73500000000000E+0001  2.70757269859314E+0000
 1.73000000000000E+0001  2.53539465367794E+0000
 1.72500000000000E+0001  2.44263143837452E+0000
 1.72000000000000E+0001  2.64324827492237E+0000
 1.71500000000000E+0001  2.76270353794098E+0000
 1.71000000000000E+0001  2.91695328056812E+0000
 1.70500000000000E+0001  2.35109901428223E+0000
 1.70000000000000E+0001  2.79738911986351E+0000
 1.69500000000000E+0001  2.83290691673756E+0000
 1.69000000000000E+0001  2.78494761884212E+0000
 1.68500000000000E+0001  3.03795132040977E+0000
 1.68000000000000E+0001  2.65345597267151E+0000
 1.67500000000000E+0001  2.64924903213978E+0000
 1.67000000000000E+0001  2.71644783020020E+0000
 1.66500000000000E+0001  2.83419032394886E+0000
 1.66000000000000E+0001  3.12185657024384E+0000
 1.65500000000000E+0001  2.91285540163517E+0000
 1.65000000000000E+0001  2.64981909096241E+0000
 1.64500000000000E+0001  2.60629951953888E+0000
 1.64000000000000E+0001  2.47284618020058E+0000
 1.63500000000000E+0001  2.42051824927330E+0000
 1.63000000000000E+0001  2.33476369082928E+0000
 1.62500000000000E+0001  2.73980562388897E+0000
 1.62000000000000E+0001  2.63484987616539E+0000
 1.61500000000000E+0001  2.97465680539608E+0000
 1.61000000000000E+0001  2.75235819816589E+0000
 1.60500000000000E+0001  2.41460847854614E+0000
 1.60000000000000E+0001  2.51531171798706E+0000
 1.59500000000000E+0001  2.59101337939501E+0000
 1.59000000000000E+0001  2.35009665787220E+0000
 1.58500000000000E+0001  2.47902816534042E+0000
 1.58000000000000E+0001  2.66531035304070E+0000
 1.57500000000000E+0001  2.48993749916554E+0000
 1.57000000000000E+0001  2.67757834494114E+0000
 1.56500000000000E+0001  2.51279389858246E+0000
 1.56000000000000E+0001  2.31548173725605E+0000
 1.55500000000000E+0001  2.60153006017208E+0000
 1.55000000000000E+0001  2.75542141497135E+0000
 1.54500000000000E+0001  2.29214936494827E+0000
 1.54000000000000E+0001  2.43932954967022E+0000
 1.53500000000000E+0001  2.45484341681004E+0000
 1.53000000000000E+0001  2.63849362730980E+0000
 1.52500000000000E+0001  2.54022303223610E+0000
 1.52000000000000E+0001  2.45179672539234E+0000
 1.51500000000000E+0001  2.01403685659170E+0000
 1.51000000000000E+0001  2.60905268788338E+0000
 1.50500000000000E+0001  2.19031015038490E+0000
 1.50000000000000E+0001  2.98550345003605E+0000
 1.49500000000000E+0001  2.70096200704575E+0000
 1.49000000000000E+0001  2.03840570151806E+0000
 1.48500000000000E+0001  2.17656277120113E+0000
 1.48000000000000E+0001  2.40308445692062E+0000
 1.47500000000000E+0001  2.42718173563480E+0000
 1.47000000000000E+0001  2.42746214568615E+0000
 1.46500000000000E+0001  2.27287802100182E+0000
 1.46000000000000E+0001  2.49770276248455E+0000
 1.45500000000000E+0001  2.42052713036537E+0000
 1.45000000000000E+0001  2.53125715255737E+0000
 1.44500000000000E+0001  2.47437547147274E+0000
 1.44000000000000E+0001  2.53748616576195E+0000
 1.43500000000000E+0001  2.33248797059059E+0000
 1.43000000000000E+0001  2.61951586604118E+0000
 1.42500000000000E+0001  2.36499394476414E+0000
 1.42000000000000E+0001  2.32526823133230E+0000
 1.41500000000000E+0001  2.63371892273426E+0000
 1.41000000000000E+0001  2.37660561501980E+0000
 1.40500000000000E+0001  2.30581597983837E+0000
 1.40000000000000E+0001  2.30316344648600E+0000
 1.39500000000000E+0001  2.56558185815811E+0000
 1.39000000000000E+0001  2.70112639665604E+0000
 1.38500000000000E+0001  2.66673615574837E+0000
 1.38000000000000E+0001  2.36774699389935E+0000
 1.37500000000000E+0001  2.63688772916794E+0000
 1.37000000000000E+0001  1.82540755718946E+0000
 1.36500000000000E+0001  2.40832084417343E+0000
 1.36000000000000E+0001  2.74016170203686E+0000
 1.35500000000000E+0001  2.38987538218498E+0000
 1.35000000000000E+0001  2.29176509380341E+0000
 1.34500000000000E+0001  2.56134426593781E+0000
 1.34000000000000E+0001  2.45772051811218E+0000
 1.33500000000000E+0001  2.33239392936230E+0000
 1.33000000000000E+0001  2.40769097208977E+0000
 1.32500000000000E+0001  2.55945791304111E+0000
 1.32000000000000E+0001  2.63314147293568E+0000
 1.31500000000000E+0001  2.24180762469769E+0000
 1.31000000000000E+0001  2.37719419598579E+0000
 1.30500000000000E+0001  2.76289074122906E+0000
 1.30000000000000E+0001  2.82382993400097E+0000
 1.29500000000000E+0001  2.82616514712572E+0000
 1.29000000000000E+0001  2.74489927291870E+0000
 1.28500000000000E+0001  2.64374303817749E+0000
 1.28000000000000E+0001  2.64048480987549E+0000
 1.27500000000000E+0001  2.62220373749733E+0000
 1.27000000000000E+0001  2.83205558359623E+0000
 1.26500000000000E+0001  2.80900929868221E+0000
 1.26000000000000E+0001  2.67911998927593E+0000
 1.25500000000000E+0001  2.75243623554707E+0000
 1.25000000000000E+0001  2.51096631586552E+0000
 1.24500000000000E+0001  2.52666664868593E+0000
 1.24000000000000E+0001  2.71401119232178E+0000
 1.23500000000000E+0001  2.62771478295326E+0000
 1.23000000000000E+0001  2.70190191268921E+0000
 1.22500000000000E+0001  2.59563088417053E+0000
 1.22000000000000E+0001  2.92559149861336E+0000
 1.21500000000000E+0001  2.75305335223675E+0000
 1.21000000000000E+0001  2.58321470022202E+0000
 1.20500000000000E+0001  2.41796560585499E+0000
 1.20000000000000E+0001  2.61970224976540E+0000
 1.19500000000000E+0001  2.33200012147427E+0000
 1.19000000000000E+0001  2.52338376641274E+0000
 1.18500000000000E+0001  2.49154888093472E+0000
 1.18000000000000E+0001  2.54949519038200E+0000
 1.17500000000000E+0001  2.24460621178150E+0000
 1.17000000000000E+0001  2.48903748393059E+0000
 1.16500000000000E+0001  2.96004375815392E+0000
 1.16000000000000E+0001  2.93720643222332E+0000
 1.15500000000000E+0001  3.04187101125717E+0000
 1.15000000000000E+0001  3.33649054169655E+0000
 1.14500000000000E+0001  3.20091840624809E+0000
 1.14000000000000E+0001  2.83945576846600E+0000
 1.13500000000000E+0001  2.81897366791964E+0000
 1.13000000000000E+0001  3.31357844173908E+0000
 1.12500000000000E+0001  3.15874657034874E+0000
 1.12000000000000E+0001  3.06432573497295E+0000
 1.11500000000000E+0001  3.54755926132202E+0000
 1.11000000000000E+0001  3.37225839495659E+0000
 1.10500000000000E+0001  3.30186282098293E+0000
 1.10000000000000E+0001  2.83816558122635E+0000
 1.09500000000000E+0001  3.64120632410049E+0000
 1.09000000000000E+0001  3.74155727028847E+0000
 1.08500000000000E+0001  4.00782579183578E+0000
 1.08000000000000E+0001  3.58431529998779E+0000
 1.07500000000000E+0001  3.85193637013435E+0000
 1.07000000000000E+0001  4.56357443332672E+0000
 1.06500000000000E+0001  3.84197744727135E+0000
 1.06000000000000E+0001  4.34986221790314E+0000
 1.05500000000000E+0001  3.80504980683327E+0000
 1.05000000000000E+0001  3.89924320578575E+0000
 1.04500000000000E+0001  3.85847835242748E+0000
 1.04000000000000E+0001  4.25748714804649E+0000
 1.03500000000000E+0001  3.94694745540619E+0000
 1.03000000000000E+0001  4.20329451560974E+0000
 1.02500000000000E+0001  4.40945613384247E+0000
 1.02000000000000E+0001  4.50685155391693E+0000
 1.01500000000000E+0001  4.33254870772362E+0000
 1.01000000000000E+0001  3.98051294684410E+0000
 1.00500000000000E+0001  3.82193985581398E+0000
 1.00000000000000E+0001  3.83218666911125E+0000
 9.94999999999999E+0000  4.17545169591904E+0000
 9.90000000000001E+0000  3.74783682823181E+0000
 9.84999999999999E+0000  3.60758195817471E+0000
 9.80000000000001E+0000  3.39395475387573E+0000
 9.75000000000000E+0000  3.90032255649567E+0000
 9.69999999999999E+0000  4.02457943558693E+0000
 9.65000000000001E+0000  4.16763880848885E+0000
 9.59999999999999E+0000  3.65371760725975E+0000
 9.55000000000001E+0000  3.80358621478081E+0000
 9.50000000000000E+0000  3.97257086634636E+0000
 9.44999999999999E+0000  3.19584067165852E+0000
 9.40000000000001E+0000  3.31261475384235E+0000
 9.34999999999999E+0000  3.36882580816746E+0000
 9.30000000000001E+0000  3.74551528692246E+0000
 9.25000000000000E+0000  3.63079914450645E+0000
 9.19999999999999E+0000  3.58100965619087E+0000
 9.15000000000001E+0000  3.44578310847282E+0000
 9.09999999999999E+0000  3.85107558965683E+0000
 9.05000000000001E+0000  4.08273115754127E+0000
 9.00000000000000E+0000  3.63281662762165E+0000
 8.94999999999999E+0000  3.48243121802807E+0000
 8.90000000000001E+0000  3.59037916362286E+0000
 8.84999999999999E+0000  3.71385279297829E+0000
 8.80000000000001E+0000  3.70320822298527E+0000
 8.75000000000000E+0000  3.49927508831024E+0000
 8.69999999999999E+0000  3.28186550736427E+0000
 8.65000000000001E+0000  3.10042947530746E+0000
 8.59999999999999E+0000  3.15355111658573E+0000
 8.55000000000001E+0000  3.83539909124374E+0000
 8.50000000000000E+0000  3.42073538899422E+0000
 8.44999999999999E+0000  3.73137457668781E+0000
 8.40000000000001E+0000  3.47904960811138E+0000
 8.34999999999999E+0000  3.33982698619366E+0000
 8.30000000000001E+0000  2.87810678780079E+0000
 8.25000000000000E+0000  3.28410601615906E+0000
 8.19999999999999E+0000  3.42260494828224E+0000
 8.15000000000001E+0000  3.07841394841671E+0000
 8.09999999999999E+0000  3.70438945293426E+0000
 8.05000000000001E+0000  3.57732963562012E+0000
 8.00000000000000E+0000  3.78670901060104E+0000
 7.94999999999999E+0000  3.60406672954559E+0000
 7.90000000000001E+0000  3.58334042131901E+0000
 7.84999999999999E+0000  4.02530020475388E+0000
 7.80000000000001E+0000  3.50014328956604E+0000
 7.75000000000000E+0000  3.87117958068848E+0000
 7.69999999999999E+0000  4.29341921210289E+0000
 7.65000000000001E+0000  3.71097053587437E+0000
 7.59999999999999E+0000  3.60201050341129E+0000
 7.55000000000001E+0000  4.20342051982880E+0000
 7.50000000000000E+0000  4.42286667227745E+0000
 7.44999999999999E+0000  4.39044255018234E+0000
 7.40000000000001E+0000  4.39503514766693E+0000
 7.34999999999999E+0000  4.23290215432644E+0000
 7.30000000000001E+0000  4.11205059289932E+0000
 7.25000000000000E+0000  4.71638226509094E+0000
 7.19999999999999E+0000  4.53992044925690E+0000
 7.15000000000001E+0000  4.09427936375141E+0000
 7.09999999999999E+0000  5.08184850215912E+0000
 7.05000000000001E+0000  4.79073083400726E+0000
 7.00000000000000E+0000  4.86477202177048E+0000
 6.94999999999999E+0000  4.64246186614037E+0000
 6.90000000000001E+0000  4.99705395102501E+0000
 6.84999999999999E+0000  5.23644945025444E+0000
 6.80000000000001E+0000  5.37696582078934E+0000
 6.75000000000000E+0000  5.00073263049126E+0000
 6.69999999999999E+0000  4.64337584376335E+0000
 6.65000000000001E+0000  4.82815217971802E+0000
 6.59999999999999E+0000  4.82924640178680E+0000
 6.55000000000001E+0000  4.95352157950401E+0000
 6.50000000000000E+0000  5.11650347709656E+0000
 6.44999999999999E+0000  5.46782955527306E+0000
 6.40000000000001E+0000  5.26159164309502E+0000
 6.34999999999999E+0000  5.99061840772629E+0000
 6.30000000000001E+0000  5.67513877153397E+0000
 6.25000000000000E+0000  5.22733980417252E+0000
 6.19999999999999E+0000  5.00843951106071E+0000
 6.15000000000001E+0000  6.13210615515709E+0000
 6.09999999999999E+0000  5.55766323208809E+0000
 6.05000000000001E+0000  5.33583685755730E+0000
 6.00000000000000E+0000  6.02039259672165E+0000
 5.94999999999999E+0000  6.47160843014717E+0000
 5.90000000000001E+0000  6.62995982170105E+0000
 5.84999999999999E+0000  6.71276992559433E+0000
 5.80000000000001E+0000  5.49151283502579E+0000
 5.75000000000000E+0000  5.76416361331940E+0000
 5.69999999999999E+0000  5.76682651042938E+0000
 5.65000000000001E+0000  5.44724714756012E+0000
 5.59999999999999E+0000  4.88973209261894E+0000
 5.55000000000001E+0000  5.09791523218155E+0000
 5.50000000000000E+0000  5.98750138282776E+0000
 5.44999999999999E+0000  5.04239687323570E+0000
 5.40000000000001E+0000  5.13215172290802E+0000
 5.34999999999999E+0000  5.47296410799026E+0000
 5.30000000000001E+0000  5.41573721170425E+0000
 5.25000000000000E+0000  5.27262720465660E+0000
 5.19999999999999E+0000  5.75615382194519E+0000
 5.15000000000001E+0000  5.50354936718941E+0000
 5.09999999999999E+0000  4.80682826042175E+0000
 5.05000000000001E+0000  5.16832593083382E+0000
 5.00000000000000E+0000  5.72328898310661E+0000
 4.94999999999999E+0000  5.29788908362389E+0000
 4.90000000000001E+0000  5.18555858731270E+0000
 4.84999999999999E+0000  5.23790156841278E+0000
 4.80000000000001E+0000  5.49602347612381E+0000
 4.75000000000000E+0000  5.29770341515541E+0000
 4.69999999999999E+0000  5.42759388685226E+0000
 4.65000000000001E+0000  4.96667200326920E+0000
 4.59999999999999E+0000  5.05789387226105E+0000
 4.55000000000001E+0000  5.33379009366035E+0000
 4.50000000000000E+0000  4.34182864427567E+0000
 4.44999999999999E+0000  4.36636087298393E+0000
 4.40000000000001E+0000  3.93102777004242E+0000
 4.34999999999999E+0000  3.74741320312023E+0000
 4.30000000000001E+0000  4.45805349946022E+0000
 4.25000000000000E+0000  4.17368176579475E+0000
 4.19999999999999E+0000  4.08031046390533E+0000
 4.15000000000001E+0000  4.05791220068932E+0000
 4.09999999999999E+0000  3.67551127076149E+0000
 4.05000000000001E+0000  4.12203043699265E+0000
 4.00000000000000E+0000  3.82474830746651E+0000
 3.94999999999999E+0000  3.76931746304035E+0000
 3.90000000000001E+0000  3.74174764752388E+0000
 3.84999999999999E+0000  3.50499260425568E+0000
 3.80000000000001E+0000  3.51531828939915E+0000
 3.75000000000000E+0000  2.85990849137306E+0000
 3.69999999999999E+0000  3.13564038276672E+0000
 3.65000000000001E+0000  3.17488220334053E+0000
 3.59999999999999E+0000  2.89564336836338E+0000
 3.55000000000001E+0000  2.56504005193710E+0000
 3.50000000000000E+0000  2.86874312162399E+0000
 3.44999999999999E+0000  2.65254376828670E+0000
 3.40000000000001E+0000  2.89668110013008E+0000
 3.34999999999999E+0000  2.41576977074146E+0000
 3.30000000000001E+0000  2.72968608140945E+0000
 3.25000000000000E+0000  2.52501958608627E+0000
 3.19999999999999E+0000  2.43492577224970E+0000
 3.15000000000001E+0000  2.37039697170258E+0000
 3.09999999999999E+0000  2.04945958405733E+0000
 3.05000000000001E+0000  1.84388464689255E+0000
 3.00000000000000E+0000  1.99304676055908E+0000
 2.94999999999999E+0000  1.75429178774357E+0000
 2.90000000000001E+0000  1.59739506244659E+0000
 2.84999999999999E+0000  1.63242466002703E+0000
 2.80000000000001E+0000  1.72501459717751E+0000
 2.75000000000000E+0000  1.57808955013752E+0000
 2.69999999999999E+0000  1.79561227560043E+0000
 2.65000000000001E+0000  1.54307986795902E+0000
 2.59999999999999E+0000  1.37927049398422E+0000
 2.55000000000001E+0000  1.47534389793873E+0000
 2.50000000000000E+0000  1.18981967493892E+0000
 2.44999999999999E+0000  1.37250206619501E+0000
 2.40000000000001E+0000  9.89141654223204E-0001
 2.34999999999999E+0000  1.45569847524166E+0000
 2.30000000000001E+0000  1.35258138924837E+0000
 2.25000000000000E+0000  9.16999150067568E-0001
 2.19999999999999E+0000  8.05946823209524E-0001
 2.15000000000001E+0000  9.22527406364679E-0001
 2.09999999999999E+0000  9.94165139272809E-0001
 2.05000000000001E+0000  1.14864057302475E+0000
 2.00000000000000E+0000  8.57669375836849E-0001
 1.94999999999999E+0000  9.57230098545551E-0001
 1.90000000000001E+0000  1.07336241379380E+0000
 1.84999999999999E+0000  1.01574474200606E+0000
 1.80000000000001E+0000  9.22324649989605E-0001
 1.75000000000000E+0000  9.61270552128553E-0001
 1.69999999999999E+0000  8.79671327769756E-0001
 1.65000000000001E+0000  9.82142886146903E-0001
 1.59999999999999E+0000  1.02311153337359E+0000
 1.55000000000001E+0000  8.41655276715756E-0001
 1.50000000000000E+0000  9.73863039165735E-0001
 1.44999999999999E+0000  6.88787344843149E-0001
 1.40000000000001E+0000  8.81112145259976E-0001
 1.34999999999999E+0000  7.30601802468300E-0001
 1.30000000000001E+0000  6.91446810960770E-0001
 1.25000000000000E+0000  6.64275243878365E-0001
 1.19999999999999E+0000  7.21474505960941E-0001
 1.15000000000001E+0000  6.28948003053665E-0001
 1.09999999999999E+0000  7.08247113972902E-0001
 1.05000000000001E+0000  7.24192462861538E-0001
 1.00000000000000E+0000  6.18233390152454E-0001
 9.49999999999989E-0001  5.34098030999303E-0001
 9.00000000000006E-0001  7.23080754280090E-0001
 8.49999999999994E-0001  6.58928060904145E-0001
 8.00000000000011E-0001  6.27463474869728E-0001
 7.50000000000000E-0001  5.59317560866475E-0001
 6.99999999999989E-0001  6.01638249121606E-0001
 6.50000000000006E-0001  6.49296055547893E-0001
 5.99999999999994E-0001  4.80233382433653E-0001
 5.50000000000011E-0001  5.11610979214311E-0001
 5.00000000000000E-0001  6.08631603419781E-0001
 4.49999999999989E-0001  6.94907944649458E-0001
 4.00000000000006E-0001  6.18321130052209E-0001
 3.49999999999994E-0001  5.04379542544484E-0001
 3.00000000000011E-0001  5.07690574973822E-0001
 2.50000000000000E-0001  5.35792050883174E-0001
 1.99999999999989E-0001  5.90156726539135E-0001
 1.50000000000006E-0001  5.62946433201432E-0001
 9.99999999999943E-0002  5.36238485481590E-0001
 5.00000000000114E-0002  7.14867224916816E-0001
 0.00000000000000E+0000  7.90427211672068E-0001
-5.00000000000114E-0002  4.88524165004492E-0001
-9.99999999999943E-0002  8.36867759004235E-0001
-1.50000000000006E-0001  5.61912266537547E-0001
-1.99999999999989E-0001  5.30200763605535E-0001
-2.50000000000000E-0001  4.38946731388569E-0001
-3.00000000000011E-0001  5.66731855273247E-0001
-3.49999999999994E-0001  4.38968268223107E-0001
-4.00000000000006E-0001  5.04734127316624E-0001
-4.49999999999989E-0001  6.03581436909735E-0001
-5.00000000000000E-0001  7.67261642962694E-0001
-5.50000000000011E-0001  6.53043016791344E-0001
-5.99999999999994E-0001  5.16014045104384E-0001
-6.50000000000006E-0001  7.37953156232834E-0001
-6.99999999999989E-0001  5.75281007215381E-0001
-7.50000000000000E-0001  4.68262460082769E-0001
-8.00000000000011E-0001  6.42635536147282E-0001
-8.49999999999994E-0001  4.71231421921402E-0001
-9.00000000000006E-0001  5.43655759654939E-0001
-9.49999999999989E-0001  6.44272608682513E-0001
-1.00000000000000E+0000  5.60792919248343E-0001
-1.05000000000001E+0000  5.16063611954451E-0001
-1.09999999999999E+0000  6.96923234965652E-0001
-1.15000000000001E+0000  4.87638084217906E-0001
-1.19999999999999E+0000  6.05175330303609E-0001
-1.25000000000000E+0000  4.96927877888083E-0001
-1.30000000000001E+0000  6.26350548118353E-0001
-1.34999999999999E+0000  5.99934834986925E-0001
-1.40000000000001E+0000  4.67047068756074E-0001
-1.44999999999999E+0000  4.44289839826524E-0001
-1.50000000000000E+0000  6.85035027563572E-0001
-1.55000000000001E+0000  5.30829574912786E-0001
-1.59999999999999E+0000  4.25846525467932E-0001
-1.65000000000001E+0000  5.83545902743936E-0001
-1.69999999999999E+0000  3.44561672769487E-0001
-1.75000000000000E+0000  4.46135714650154E-0001
-1.80000000000001E+0000  5.33127903938293E-0001
-1.84999999999999E+0000  5.63554450869560E-0001
-1.90000000000001E+0000  5.46945231501013E-0001
-1.94999999999999E+0000  4.93785882368684E-0001
-2.00000000000000E+0000  5.23899157531559E-0001
-2.05000000000001E+0000  5.14118126593530E-0001
-2.09999999999999E+0000  4.37871924601495E-0001
-2.15000000000001E+0000  5.55395884905010E-0001
-2.19999999999999E+0000  6.88502367585897E-0001
-2.25000000000000E+0000  6.44779055379331E-0001
-2.30000000000001E+0000  7.08318799734116E-0001
-2.34999999999999E+0000  6.11270910128951E-0001
-2.40000000000001E+0000  5.86866244208068E-0001
-2.44999999999999E+0000  5.16796533018351E-0001
-2.50000000000000E+0000  7.08150416612625E-0001
-2.55000000000001E+0000  6.30091492086649E-0001
-2.59999999999999E+0000  4.06671871431172E-0001
-2.65000000000001E+0000  5.33380542881787E-0001
-2.69999999999999E+0000  6.34105144068599E-0001
-2.75000000000000E+0000  4.82996048405766E-0001
-2.80000000000001E+0000  5.28537129983306E-0001
-2.84999999999999E+0000  5.41339391842484E-0001
-2.90000000000001E+0000  5.88493483141065E-0001
-2.94999999999999E+0000  4.32408137246966E-0001
-3.00000000000000E+0000  5.55113313719630E-0001
-3.05000000000001E+0000  5.17153678461909E-0001
-3.09999999999999E+0000  6.08082729857415E-0001
-3.15000000000001E+0000  6.06026820838451E-0001
-3.19999999999999E+0000  7.05305140465498E-0001
-3.25000000000000E+0000  6.74903294071555E-0001
-3.30000000000001E+0000  7.53701001405716E-0001
-3.34999999999999E+0000  4.57615138031542E-0001
-3.40000000000001E+0000  4.90164607763290E-0001
-3.44999999999999E+0000  5.03254367504269E-0001
-3.50000000000000E+0000  5.13842325657606E-0001
-3.55000000000001E+0000  6.12633991986513E-0001
-3.59999999999999E+0000  4.40991451721402E-0001
-3.65000000000001E+0000  4.21081689652055E-0001
-3.69999999999999E+0000  5.39387122727931E-0001
-3.75000000000000E+0000  5.41702149435878E-0001
-3.80000000000001E+0000  4.43733604624867E-0001
-3.84999999999999E+0000  6.38182201422751E-0001
-3.90000000000001E+0000  5.28000004589558E-0001
-3.94999999999999E+0000  5.29627159237862E-0001
-4.00000000000000E+0000  4.54066683538258E-0001
-4.05000000000001E+0000  6.16793472319841E-0001
-4.09999999999999E+0000  5.58645641431212E-0001
-4.15000000000001E+0000  6.42179792746902E-0001
-4.19999999999999E+0000  5.88239585049450E-0001
-4.25000000000000E+0000  6.90931130200625E-0001
-4.30000000000001E+0000  5.33143237233162E-0001
-4.34999999999999E+0000  5.45844073407352E-0001
-4.40000000000001E+0000  7.39370113238692E-0001
-4.44999999999999E+0000  6.84472128748894E-0001
-4.50000000000000E+0000  5.24471544660628E-0001
-4.55000000000001E+0000  5.11778652667999E-0001
-4.59999999999999E+0000  5.10052446275950E-0001
-4.65000000000001E+0000  5.60862772166729E-0001
-4.69999999999999E+0000  7.17184476554394E-0001
-4.75000000000000E+0000  6.33388835936785E-0001
-4.80000000000001E+0000  4.44135803729296E-0001
-4.84999999999999E+0000  4.61172462906688E-0001
-4.90000000000001E+0000  4.44929774850607E-0001
-4.94999999999999E+0000  5.46592084690928E-0001
-5.00000000000000E+0000  6.50042893365026E-0001
-5.05000000000001E+0000  6.32227163761854E-0001
-5.09999999999999E+0000  4.95237484574318E-0001
-5.15000000000001E+0000  6.43857210874557E-0001
-5.19999999999999E+0000  5.83578459918499E-0001
-5.25000000000000E+0000  3.88923079706728E-0001
-5.30000000000001E+0000  7.27343861013651E-0001
-5.34999999999999E+0000  5.78286204487085E-0001
-5.40000000000001E+0000  8.19841336458921E-0001
-5.44999999999999E+0000  5.51819708198309E-0001
-5.50000000000000E+0000  5.44453877955675E-0001
-5.55000000000001E+0000  4.83659499324858E-0001
-5.59999999999999E+0000  4.80579167604446E-0001
-5.65000000000001E+0000  5.09559608995914E-0001
-5.69999999999999E+0000  4.61756427073851E-0001
-5.75000000000000E+0000  7.11607273668051E-0001
-5.80000000000001E+0000  4.72547665704042E-0001
-5.84999999999999E+0000  6.10916126519442E-0001
-5.90000000000001E+0000  6.35952476412058E-0001
-5.94999999999999E+0000  4.78130873292685E-0001
-6.00000000000000E+0000  5.43699096888304E-0001
-6.05000000000001E+0000  4.66060625389218E-0001
-6.09999999999999E+0000  6.27391984686255E-0001
-6.15000000000001E+0000  5.48693595454097E-0001
-6.19999999999999E+0000  5.33370579127222E-0001
-6.25000000000000E+0000  6.36967988684774E-0001
-6.30000000000001E+0000  4.34361170977354E-0001
-6.34999999999999E+0000  5.28281603008509E-0001
-6.40000000000001E+0000  4.99676296487451E-0001
-6.44999999999999E+0000  5.19281556829810E-0001
-6.50000000000000E+0000  5.71795098483562E-0001
-6.55000000000001E+0000  5.40684180334210E-0001
-6.59999999999999E+0000  3.75707619823515E-0001
-6.65000000000001E+0000  4.77138381451368E-0001
-6.69999999999999E+0000  7.03771770000458E-0001
-6.75000000000000E+0000  4.10040442366153E-0001
-6.80000000000001E+0000  4.93563810363412E-0001
-6.84999999999999E+0000  5.42703790590167E-0001
-6.90000000000001E+0000  5.69010160863399E-0001
-6.94999999999999E+0000  6.07738987542689E-0001
-7.00000000000000E+0000  5.74407609179616E-0001
-7.05000000000001E+0000  4.75820460822433E-0001
-7.09999999999999E+0000  5.15982428565621E-0001
-7.15000000000001E+0000  5.52051474340260E-0001
-7.19999999999999E+0000  4.75801467895508E-0001
-7.25000000000000E+0000  4.08039686735719E-0001
-7.30000000000001E+0000  5.38118572905660E-0001
-7.34999999999999E+0000  6.08152348548174E-0001
-7.40000000000001E+0000  3.89956217259169E-0001
-7.44999999999999E+0000  5.66274849697948E-0001
-7.50000000000000E+0000  5.35127231851220E-0001
-7.55000000000001E+0000  3.59422573354095E-0001
-7.59999999999999E+0000  5.83314625546336E-0001
-7.65000000000001E+0000  4.28718999028206E-0001
-7.69999999999999E+0000  3.41897248872556E-0001
-7.75000000000000E+0000  3.42653628438711E-0001
-7.80000000000001E+0000  4.74014316685498E-0001
-7.84999999999999E+0000  4.45242652203888E-0001
-7.90000000000001E+0000  4.95125769637525E-0001
-7.94999999999999E+0000  6.14590268582106E-0001
-8.00000000000000E+0000  6.24281238764524E-0001
-8.05000000000001E+0000  6.26899227499962E-0001
-8.09999999999999E+0000  7.47230619192123E-0001
-8.15000000000001E+0000  5.62494762241840E-0001
-8.19999999999999E+0000  4.99211603775620E-0001
-8.25000000000000E+0000  6.44224254414439E-0001
-8.30000000000001E+0000  6.90035115927458E-0001
-8.34999999999999E+0000  6.02078198455274E-0001
-8.40000000000001E+0000  4.52922230469994E-0001
-8.44999999999999E+0000  4.67863502912223E-0001
-8.50000000000000E+0000  5.46315815299749E-0001
-8.55000000000001E+0000  5.01678936183453E-0001
-8.59999999999999E+0000  3.34893839084543E-0001
-8.65000000000001E+0000  4.04608019627631E-0001
-8.69999999999999E+0000  4.52999679371715E-0001
-8.75000000000000E+0000  5.11118838563561E-0001
-8.80000000000001E+0000  5.24167224764824E-0001
-8.84999999999999E+0000  3.83304761257023E-0001
-8.90000000000001E+0000  4.67454543802887E-0001
-8.94999999999999E+0000  6.50515899062157E-0001
-9.00000000000000E+0000  4.93361646309495E-0001
-9.05000000000001E+0000  5.13443470001221E-0001
-9.09999999999999E+0000  6.83846585452557E-0001
-9.15000000000001E+0000  4.62941618636250E-0001
-9.19999999999999E+0000  5.70333175361156E-0001
-9.25000000000000E+0000  3.92533801496029E-0001
-9.30000000000001E+0000  4.92549730464816E-0001
-9.34999999999999E+0000  4.70206059515476E-0001
-9.40000000000001E+0000  3.80810637027025E-0001
-9.44999999999999E+0000  5.28015112504363E-0001
-9.50000000000000E+0000  5.46904560178518E-0001
-9.55000000000001E+0000  6.83326284401119E-0001
-9.59999999999999E+0000  5.56812757626176E-0001
-9.65000000000001E+0000  5.38640580140054E-0001
-9.69999999999999E+0000  5.61724657192826E-0001
-9.75000000000000E+0000  5.90509194880724E-0001
-9.80000000000001E+0000  4.90793318953365E-0001
-9.84999999999999E+0000  4.46948578581214E-0001
-9.90000000000001E+0000  5.38885318674147E-0001
-9.94999999999999E+0000  5.90171866118908E-0001
-1.00000000000000E+0001  5.71496622171253E-0001

