[Info]
Number of Regions=0001
Version=1.3.1

[Region 1]
Region Name=Ag3d
Dimension 1 name=Binding Energy [eV]
Dimension 1 size=361
Dimension 1 scale=382 381.95 381.9 381.85 381.8 381.75 381.7 381.65 381.6 381.55 381.5 381.45 381.4 381.35 381.3 381.25 381.2 381.15 381.1 381.05 381 380.95 380.9 380.85 380.8 380.75 380.7 380.65 380.6 380.55 380.5 380.45 380.4 380.35 380.3 380.25 380.2 380.15 380.1 380.05 380 379.95 379.9 379.85 379.8 379.75 379.7 379.65 379.6 379.55 379.5 379.45 379.4 379.35 379.3 379.25 379.2 379.15 379.1 379.05 379 378.95 378.9 378.85 378.8 378.75 378.7 378.65 378.6 378.55 378.5 378.45 378.4 378.35 378.3 378.25 378.2 378.15 378.1 378.05 378 377.95 377.9 377.85 377.8 377.75 377.7 377.65 377.6 377.55 377.5 377.45 377.4 377.35 377.3 377.25 377.2 377.15 377.1 377.05 377 376.95 376.9 376.85 376.8 376.75 376.7 376.65 376.6 376.55 376.5 376.45 376.4 376.35 376.3 376.25 376.2 376.15 376.1 376.05 376 375.95 375.9 375.85 375.8 375.75 375.7 375.65 375.6 375.55 375.5 375.45 375.4 375.35 375.3 375.25 375.2 375.15 375.1 375.05 375 374.95 374.9 374.85 374.8 374.75 374.7 374.65 374.6 374.55 374.5 374.45 374.4 374.35 374.3 374.25 374.2 374.15 374.1 374.05 374 373.95 373.9 373.85 373.8 373.75 373.7 373.65 373.6 373.55 373.5 373.45 373.4 373.35 373.3 373.25 373.2 373.15 373.1 373.05 373 372.95 372.9 372.85 372.8 372.75 372.7 372.65 372.6 372.55 372.5 372.45 372.4 372.35 372.3 372.25 372.2 372.15 372.1 372.05 372 371.95 371.9 371.85 371.8 371.75 371.7 371.65 371.6 371.55 371.5 371.45 371.4 371.35 371.3 371.25 371.2 371.15 371.1 371.05 371 370.95 370.9 370.85 370.8 370.75 370.7 370.65 370.6 370.55 370.5 370.45 370.4 370.35 370.3 370.25 370.2 370.15 370.1 370.05 370 369.95 369.9 369.85 369.8 369.75 369.7 369.65 369.6 369.55 369.5 369.45 369.4 369.35 369.3 369.25 369.2 369.15 369.1 369.05 369 368.95 368.9 368.85 368.8 368.75 368.7 368.65 368.6 368.55 368.5 368.45 368.4 368.35 368.3 368.25 368.2 368.15 368.1 368.05 368 367.95 367.9 367.85 367.8 367.75 367.7 367.65 367.6 367.55 367.5 367.45 367.4 367.35 367.3 367.25 367.2 367.15 367.1 367.05 367 366.95 366.9 366.85 366.8 366.75 366.7 366.65 366.6 366.55 366.5 366.45 366.4 366.35 366.3 366.25 366.2 366.15 366.1 366.05 366 365.95 365.9 365.85 365.8 365.75 365.7 365.65 365.6 365.55 365.5 365.45 365.4 365.35 365.3 365.25 365.2 365.15 365.1 365.05 365 364.95 364.9 364.85 364.8 364.75 364.7 364.65 364.6 364.55 364.5 364.45 364.4 364.35 364.3 364.25 364.2 364.15 364.1 364.05 364

[Info 1]
Region Name=Ag3d
Lens Mode=Transmission
Pass Energy=50
Number of Sweeps=2
Excitation Energy=520
Energy Scale=Binding
Acquisition Mode=Swept
Energy Unit=Kinetic
Center Energy=147
Low Energy=138
High Energy=156
Energy Step=0.05
Step Time=203
Detector First X-Channel=43
Detector Last X-Channel=659
Detector First Y-Channel=91
Detector Last Y-Channel=398
Number of Slices=1
File=Z:\XPS_data\2023\Mar2023\KIT\Ag_0001.txt,.pxt,.ibw
Sequence=D:\old files\data2\data\Cu-HTTP_Mar_23.seq
Spectrum Name=Ag__001
Instrument=R3000-6MS014
Location=Scienta
User=AN
Sample=Ag
Comments=;
Date=2023-03-08
Time=15:24:35
Time per Spectrum Channel=45.066
DetectorMode=ADC
[Run Mode Information 1]



[Data 1]
 3.82000000000000E+0002  1.57494897842407E+0001
 3.81950000000000E+0002  1.64413099288940E+0001
 3.81900000000000E+0002  1.55735635757446E+0001
 3.81850000000000E+0002  1.54435629844666E+0001
 3.81800000000000E+0002  1.54182739257813E+0001
 3.81750000000000E+0002  1.56504435539246E+0001
 3.81700000000000E+0002  1.63364887237549E+0001
 3.81650000000000E+0002  1.57809653282166E+0001
 3.81600000000000E+0002  1.63200769424438E+0001
 3.81550000000000E+0002  1.59050579071045E+0001
 3.81500000000000E+0002  1.57870745658875E+0001
 3.81450000000000E+0002  1.55918908119202E+0001
 3.81400000000000E+0002  1.55100755691528E+0001
 3.81350000000000E+0002  1.54439034461975E+0001
 3.81300000000000E+0002  1.55248527526855E+0001
 3.81250000000000E+0002  1.41690402030945E+0001
 3.81200000000000E+0002  1.60760860443115E+0001
 3.81150000000000E+0002  1.48629846572876E+0001
 3.81100000000000E+0002  1.56844453811646E+0001
 3.81050000000000E+0002  1.47998075485229E+0001
 3.81000000000000E+0002  1.66099176406860E+0001
 3.80950000000000E+0002  1.55111665725708E+0001
 3.80900000000000E+0002  1.57977375984192E+0001
 3.80850000000000E+0002  1.47676258087158E+0001
 3.80800000000000E+0002  1.47283148765564E+0001
 3.80750000000000E+0002  1.49334163665771E+0001
 3.80700000000000E+0002  1.57090630531311E+0001
 3.80650000000000E+0002  1.43097653388977E+0001
 3.80600000000000E+0002  1.51413059234619E+0001
 3.80550000000000E+0002  1.43209037780762E+0001
 3.80500000000000E+0002  1.54984273910522E+0001
 3.80450000000000E+0002  1.58196969032288E+0001
 3.80400000000000E+0002  1.62004394531250E+0001
 3.80350000000000E+0002  1.49333500862122E+0001
 3.80300000000000E+0002  1.55413570404053E+0001
 3.80250000000000E+0002  1.35080385208130E+0001
 3.80200000000000E+0002  1.53979387283325E+0001
 3.80150000000000E+0002  1.50949568748474E+0001
 3.80100000000000E+0002  1.49770488739014E+0001
 3.80050000000000E+0002  1.54676914215088E+0001
 3.80000000000000E+0002  1.50816597938538E+0001
 3.79950000000000E+0002  1.59943847656250E+0001
 3.79900000000000E+0002  1.44137086868286E+0001
 3.79850000000000E+0002  1.51465196609497E+0001
 3.79800000000000E+0002  1.58124761581421E+0001
 3.79750000000000E+0002  1.51443567276001E+0001
 3.79700000000000E+0002  1.52470436096191E+0001
 3.79650000000000E+0002  1.50198774337769E+0001
 3.79600000000000E+0002  1.53124737739563E+0001
 3.79550000000000E+0002  1.49150300025940E+0001
 3.79500000000000E+0002  1.54385724067688E+0001
 3.79450000000000E+0002  1.51602587699890E+0001
 3.79400000000000E+0002  1.49494242668152E+0001
 3.79350000000000E+0002  1.50685029029846E+0001
 3.79300000000000E+0002  1.56178331375122E+0001
 3.79250000000000E+0002  1.52707815170288E+0001
 3.79200000000000E+0002  1.48378114700317E+0001
 3.79150000000000E+0002  1.40221962928772E+0001
 3.79100000000000E+0002  1.44629292488098E+0001
 3.79050000000000E+0002  1.51645593643188E+0001
 3.79000000000000E+0002  1.52528409957886E+0001
 3.78950000000000E+0002  1.47578248977661E+0001
 3.78900000000000E+0002  1.49093451499939E+0001
 3.78850000000000E+0002  1.49314327239990E+0001
 3.78800000000000E+0002  1.48976922035217E+0001
 3.78750000000000E+0002  1.43259181976318E+0001
 3.78700000000000E+0002  1.55560269355774E+0001
 3.78650000000000E+0002  1.50374283790588E+0001
 3.78600000000000E+0002  1.49277997016907E+0001
 3.78550000000000E+0002  1.52587518692017E+0001
 3.78500000000000E+0002  1.49624061584473E+0001
 3.78450000000000E+0002  1.51682291030884E+0001
 3.78400000000000E+0002  1.56328234672546E+0001
 3.78350000000000E+0002  1.50407094955444E+0001
 3.78300000000000E+0002  1.48496618270874E+0001
 3.78250000000000E+0002  1.43254609107971E+0001
 3.78200000000000E+0002  1.51318750381470E+0001
 3.78150000000000E+0002  1.48879990577698E+0001
 3.78100000000000E+0002  1.52053098678589E+0001
 3.78050000000000E+0002  1.55034446716309E+0001
 3.78000000000000E+0002  1.41631789207459E+0001
 3.77950000000000E+0002  1.47533550262451E+0001
 3.77900000000000E+0002  1.50532965660095E+0001
 3.77850000000000E+0002  1.48620910644531E+0001
 3.77800000000000E+0002  1.61487989425659E+0001
 3.77750000000000E+0002  1.62200355529785E+0001
 3.77700000000000E+0002  1.48400707244873E+0001
 3.77650000000000E+0002  1.51052312850952E+0001
 3.77600000000000E+0002  1.52342233657837E+0001
 3.77550000000000E+0002  1.52192478179932E+0001
 3.77500000000000E+0002  1.58891410827637E+0001
 3.77450000000000E+0002  1.44678759574890E+0001
 3.77400000000000E+0002  1.54222111701965E+0001
 3.77350000000000E+0002  1.54114909172058E+0001
 3.77300000000000E+0002  1.49247450828552E+0001
 3.77250000000000E+0002  1.56796102523804E+0001
 3.77200000000000E+0002  1.58447494506836E+0001
 3.77150000000000E+0002  1.60251660346985E+0001
 3.77100000000000E+0002  1.55270276069641E+0001
 3.77050000000000E+0002  1.61188068389893E+0001
 3.77000000000000E+0002  1.74335250854492E+0001
 3.76950000000000E+0002  1.60741324424744E+0001
 3.76900000000000E+0002  1.69899473190308E+0001
 3.76850000000000E+0002  1.75755357742310E+0001
 3.76800000000000E+0002  1.84132165908813E+0001
 3.76750000000000E+0002  1.93554477691650E+0001
 3.76700000000000E+0002  2.00024967193603E+0001
 3.76650000000000E+0002  2.00815582275391E+0001
 3.76600000000000E+0002  2.12560024261475E+0001
 3.76550000000000E+0002  2.33023719787598E+0001
 3.76500000000000E+0002  2.29073934555054E+0001
 3.76450000000000E+0002  2.61511659622192E+0001
 3.76400000000000E+0002  2.78636026382446E+0001
 3.76350000000000E+0002  2.86364431381226E+0001
 3.76300000000000E+0002  2.98695917129517E+0001
 3.76250000000000E+0002  3.13227787017822E+0001
 3.76200000000000E+0002  3.22618303298950E+0001
 3.76150000000000E+0002  3.32425518035889E+0001
 3.76100000000000E+0002  3.43366584777832E+0001
 3.76050000000000E+0002  3.36744937896729E+0001
 3.76000000000000E+0002  3.44810085296631E+0001
 3.75950000000000E+0002  3.59695625305176E+0001
 3.75900000000000E+0002  3.47897396087646E+0001
 3.75850000000000E+0002  3.43475494384766E+0001
 3.75800000000000E+0002  3.34349670410156E+0001
 3.75750000000000E+0002  3.45781250000000E+0001
 3.75700000000000E+0002  3.35668334960938E+0001
 3.75650000000000E+0002  3.29793815612793E+0001
 3.75600000000000E+0002  3.18872461318970E+0001
 3.75550000000000E+0002  3.22348451614380E+0001
 3.75500000000000E+0002  3.32681827545166E+0001
 3.75450000000000E+0002  3.27906370162964E+0001
 3.75400000000000E+0002  3.24426841735840E+0001
 3.75350000000000E+0002  3.17976484298706E+0001
 3.75300000000000E+0002  3.07904434204102E+0001
 3.75250000000000E+0002  3.05953178405762E+0001
 3.75200000000000E+0002  3.17762117385864E+0001
 3.75150000000000E+0002  3.28849296569824E+0001
 3.75100000000000E+0002  3.02298536300659E+0001
 3.75050000000000E+0002  2.95215673446655E+0001
 3.75000000000000E+0002  2.81435985565186E+0001
 3.74950000000000E+0002  2.83872947692871E+0001
 3.74900000000000E+0002  2.68225383758545E+0001
 3.74850000000000E+0002  2.45209989547730E+0001
 3.74800000000000E+0002  2.45335168838501E+0001
 3.74750000000000E+0002  2.44747190475464E+0001
 3.74700000000000E+0002  2.23934144973755E+0001
 3.74650000000000E+0002  2.20680770874023E+0001
 3.74600000000000E+0002  2.10057821273804E+0001
 3.74550000000000E+0002  1.99815006256104E+0001
 3.74500000000000E+0002  1.91868152618408E+0001
 3.74450000000000E+0002  1.88583250045776E+0001
 3.74400000000000E+0002  1.71150598526001E+0001
 3.74350000000000E+0002  1.68515796661377E+0001
 3.74300000000000E+0002  1.74512701034546E+0001
 3.74250000000000E+0002  1.61111660003662E+0001
 3.74200000000000E+0002  1.62994050979614E+0001
 3.74150000000000E+0002  1.58555960655212E+0001
 3.74100000000000E+0002  1.58946795463562E+0001
 3.74050000000000E+0002  1.53749313354492E+0001
 3.74000000000000E+0002  1.54611630439758E+0001
 3.73950000000000E+0002  1.52839241027832E+0001
 3.73900000000000E+0002  1.44980049133301E+0001
 3.73850000000000E+0002  1.51541314125061E+0001
 3.73800000000000E+0002  1.36951303482056E+0001
 3.73750000000000E+0002  1.40718884468079E+0001
 3.73700000000000E+0002  1.51999187469482E+0001
 3.73650000000000E+0002  1.45192465782166E+0001
 3.73600000000000E+0002  1.42443904876709E+0001
 3.73550000000000E+0002  1.42818002700806E+0001
 3.73500000000000E+0002  1.39435510635376E+0001
 3.73450000000000E+0002  1.47659606933594E+0001
 3.73400000000000E+0002  1.38597416877747E+0001
 3.73350000000000E+0002  1.37865881919861E+0001
 3.73300000000000E+0002  1.37333679199219E+0001
 3.73250000000000E+0002  1.50529637336731E+0001
 3.73200000000000E+0002  1.42001576423645E+0001
 3.73150000000000E+0002  1.43615083694458E+0001
 3.73100000000000E+0002  1.42914781570435E+0001
 3.73050000000000E+0002  1.40233755111694E+0001
 3.73000000000000E+0002  1.43548207283020E+0001
 3.72950000000000E+0002  1.43070063591003E+0001
 3.72900000000000E+0002  1.33733487129211E+0001
 3.72850000000000E+0002  1.34518852233887E+0001
 3.72800000000000E+0002  1.33726849555969E+0001
 3.72750000000000E+0002  1.39107127189636E+0001
 3.72700000000000E+0002  1.38429369926453E+0001
 3.72650000000000E+0002  1.45144338607788E+0001
 3.72600000000000E+0002  1.41194915771484E+0001
 3.72550000000000E+0002  1.44867777824402E+0001
 3.72500000000000E+0002  1.37754874229431E+0001
 3.72450000000000E+0002  1.37267427444458E+0001
 3.72400000000000E+0002  1.35776705741882E+0001
 3.72350000000000E+0002  1.46350684165955E+0001
 3.72300000000000E+0002  1.38051037788391E+0001
 3.72250000000000E+0002  1.55433640480041E+0001
 3.72200000000000E+0002  1.47949943542480E+0001
 3.72150000000000E+0002  1.36028943061829E+0001
 3.72100000000000E+0002  1.34426980018616E+0001
 3.72050000000000E+0002  1.39940834045410E+0001
 3.72000000000000E+0002  1.47441644668579E+0001
 3.71950000000000E+0002  1.47270541191101E+0001
 3.71900000000000E+0002  1.40295715332031E+0001
 3.71850000000000E+0002  1.46239471435547E+0001
 3.71800000000000E+0002  1.48882236480713E+0001
 3.71750000000000E+0002  1.45164504051208E+0001
 3.71700000000000E+0002  1.49725885391235E+0001
 3.71650000000000E+0002  1.58953838348389E+0001
 3.71600000000000E+0002  1.55053730010986E+0001
 3.71550000000000E+0002  1.55911974906921E+0001
 3.71500000000000E+0002  1.45202012062073E+0001
 3.71450000000000E+0002  1.51256389617920E+0001
 3.71400000000000E+0002  1.53773498535156E+0001
 3.71350000000000E+0002  1.51921787261963E+0001
 3.71300000000000E+0002  1.52783823013306E+0001
 3.71250000000000E+0002  1.60127148628235E+0001
 3.71200000000000E+0002  1.64643192291260E+0001
 3.71150000000000E+0002  1.62343087196350E+0001
 3.71100000000000E+0002  1.62916545867920E+0001
 3.71050000000000E+0002  1.73342838287354E+0001
 3.71000000000000E+0002  1.79000425338745E+0001
 3.70950000000000E+0002  1.83403158187866E+0001
 3.70900000000000E+0002  1.84782981872559E+0001
 3.70850000000000E+0002  1.92199840545654E+0001
 3.70800000000000E+0002  2.06073207855225E+0001
 3.70750000000000E+0002  2.28399467468262E+0001
 3.70700000000000E+0002  2.23888978958130E+0001
 3.70650000000000E+0002  2.49636154174805E+0001
 3.70600000000000E+0002  2.52168426513672E+0001
 3.70550000000000E+0002  2.75928087234497E+0001
 3.70500000000000E+0002  3.09665937423706E+0001
 3.70450000000000E+0002  3.26754941940308E+0001
 3.70400000000000E+0002  3.38799076080322E+0001
 3.70350000000000E+0002  3.61099948883057E+0001
 3.70300000000000E+0002  3.80707473754883E+0001
 3.70250000000000E+0002  3.88946304321289E+0001
 3.70200000000000E+0002  4.20250263214111E+0001
 3.70150000000000E+0002  4.38316020965576E+0001
 3.70100000000000E+0002  4.51800842285156E+0001
 3.70050000000000E+0002  4.85302772521973E+0001
 3.70000000000000E+0002  4.84325256347656E+0001
 3.69950000000000E+0002  4.90069885253906E+0001
 3.69900000000000E+0002  4.91230640411377E+0001
 3.69850000000000E+0002  4.72265300750732E+0001
 3.69800000000000E+0002  4.69174137115479E+0001
 3.69750000000000E+0002  4.61901836395264E+0001
 3.69700000000000E+0002  4.43363113403320E+0001
 3.69650000000000E+0002  4.37466449737549E+0001
 3.69600000000000E+0002  4.31885070800781E+0001
 3.69550000000000E+0002  4.28270778656006E+0001
 3.69500000000000E+0002  4.29605751037598E+0001
 3.69450000000000E+0002  4.32724189758301E+0001
 3.69400000000000E+0002  4.14488849639893E+0001
 3.69350000000000E+0002  4.27307758331299E+0001
 3.69300000000000E+0002  4.13864974975586E+0001
 3.69250000000000E+0002  4.05263576507568E+0001
 3.69200000000000E+0002  4.04347705841064E+0001
 3.69150000000000E+0002  3.89697151184082E+0001
 3.69100000000000E+0002  3.85387306213379E+0001
 3.69050000000000E+0002  3.81469898223877E+0001
 3.69000000000000E+0002  3.66166744232178E+0001
 3.68950000000000E+0002  3.53046836853027E+0001
 3.68900000000000E+0002  3.53709297180176E+0001
 3.68850000000000E+0002  3.25035648345947E+0001
 3.68800000000000E+0002  3.11546001434326E+0001
 3.68750000000000E+0002  3.15857286453247E+0001
 3.68700000000000E+0002  2.87193651199341E+0001
 3.68650000000000E+0002  2.60236577987671E+0001
 3.68600000000000E+0002  2.66449270248413E+0001
 3.68550000000000E+0002  2.38720169067383E+0001
 3.68500000000000E+0002  2.39150276184082E+0001
 3.68450000000000E+0002  2.21531953811646E+0001
 3.68400000000000E+0002  1.95341606140137E+0001
 3.68350000000000E+0002  1.91806650161743E+0001
 3.68300000000000E+0002  1.82291097640991E+0001
 3.68250000000000E+0002  1.76414966583252E+0001
 3.68200000000000E+0002  1.80748758316040E+0001
 3.68150000000000E+0002  1.78317594528198E+0001
 3.68100000000000E+0002  1.69700202941895E+0001
 3.68050000000000E+0002  1.79059257507324E+0001
 3.68000000000000E+0002  1.64905881881714E+0001
 3.67950000000000E+0002  1.53120617866516E+0001
 3.67900000000000E+0002  1.51799402236938E+0001
 3.67850000000000E+0002  1.44476442337036E+0001
 3.67800000000000E+0002  1.55264472961426E+0001
 3.67750000000000E+0002  1.48560962677002E+0001
 3.67700000000000E+0002  1.47195467948914E+0001
 3.67650000000000E+0002  1.43917679786682E+0001
 3.67600000000000E+0002  1.47139253616333E+0001
 3.67550000000000E+0002  1.35707759857178E+0001
 3.67500000000000E+0002  1.39690403938293E+0001
 3.67450000000000E+0002  1.48282279968262E+0001
 3.67400000000000E+0002  1.46265621185303E+0001
 3.67350000000000E+0002  1.36998987197876E+0001
 3.67300000000000E+0002  1.47192778587341E+0001
 3.67250000000000E+0002  1.39265775680542E+0001
 3.67200000000000E+0002  1.39382052421570E+0001
 3.67150000000000E+0002  1.41879715919495E+0001
 3.67100000000000E+0002  1.48662767410278E+0001
 3.67050000000000E+0002  1.41385378837585E+0001
 3.67000000000000E+0002  1.39103469848633E+0001
 3.66950000000000E+0002  1.48608984947205E+0001
 3.66900000000000E+0002  1.54960737228394E+0001
 3.66850000000000E+0002  1.51222505569458E+0001
 3.66800000000000E+0002  1.41004304885864E+0001
 3.66750000000000E+0002  1.42294158935547E+0001
 3.66700000000000E+0002  1.39531588554382E+0001
 3.66650000000000E+0002  1.33953723907471E+0001
 3.66600000000000E+0002  1.33827085494995E+0001
 3.66550000000000E+0002  1.41148390769959E+0001
 3.66500000000000E+0002  1.37094802856445E+0001
 3.66450000000000E+0002  1.40760707855225E+0001
 3.66400000000000E+0002  1.37842106819153E+0001
 3.66350000000000E+0002  1.44878454208374E+0001
 3.66300000000000E+0002  1.36269545555115E+0001
 3.66250000000000E+0002  1.40473437309265E+0001
 3.66200000000000E+0002  1.50036888122559E+0001
 3.66150000000000E+0002  1.42514410018921E+0001
 3.66100000000000E+0002  1.32787837982178E+0001
 3.66050000000000E+0002  1.36622939109802E+0001
 3.66000000000000E+0002  1.41486802101135E+0001
 3.65950000000000E+0002  1.35549035072327E+0001
 3.65900000000000E+0002  1.43072447776794E+0001
 3.65850000000000E+0002  1.35523810386658E+0001
 3.65800000000000E+0002  1.39640274047852E+0001
 3.65750000000000E+0002  1.38229041099548E+0001
 3.65700000000000E+0002  1.40818195343018E+0001
 3.65650000000000E+0002  1.35354733467102E+0001
 3.65600000000000E+0002  1.36108450889587E+0001
 3.65550000000000E+0002  1.31030659675598E+0001
 3.65500000000000E+0002  1.34424591064453E+0001
 3.65450000000000E+0002  1.41796655654907E+0001
 3.65400000000000E+0002  1.36854448318481E+0001
 3.65350000000000E+0002  1.37322764396667E+0001
 3.65300000000000E+0002  1.34422760009766E+0001
 3.65250000000000E+0002  1.30984420776367E+0001
 3.65200000000000E+0002  1.39677639007568E+0001
 3.65150000000000E+0002  1.36648526191711E+0001
 3.65100000000000E+0002  1.31513757705688E+0001
 3.65050000000000E+0002  1.50544595718384E+0001
 3.65000000000000E+0002  1.43763031959534E+0001
 3.64950000000000E+0002  1.36302690505981E+0001
 3.64900000000000E+0002  1.39439554214478E+0001
 3.64850000000000E+0002  1.42590832710266E+0001
 3.64800000000000E+0002  1.41765475273132E+0001
 3.64750000000000E+0002  1.37863874435425E+0001
 3.64700000000000E+0002  1.34716482162476E+0001
 3.64650000000000E+0002  1.42044219970703E+0001
 3.64600000000000E+0002  1.37699837684631E+0001
 3.64550000000000E+0002  1.35058851242065E+0001
 3.64500000000000E+0002  1.40365624427795E+0001
 3.64450000000000E+0002  1.49350633621216E+0001
 3.64400000000000E+0002  1.43927721977234E+0001
 3.64350000000000E+0002  1.35368013381958E+0001
 3.64300000000000E+0002  1.35385813713074E+0001
 3.64250000000000E+0002  1.40966658592224E+0001
 3.64200000000000E+0002  1.41538577079773E+0001
 3.64150000000000E+0002  1.33765773773193E+0001
 3.64100000000000E+0002  1.37874016761780E+0001
 3.64050000000000E+0002  1.38551530838013E+0001
 3.64000000000000E+0002  1.31949939727783E+0001

