[Info]
Number of Regions=0001
Version=1.3.1

[Region 1]
Region Name=Cu_3p
Dimension 1 name=Binding Energy [eV]
Dimension 1 size=321
Dimension 1 scale=84 83.95 83.9 83.85 83.8 83.75 83.7 83.65 83.6 83.55 83.5 83.45 83.4 83.35 83.3 83.25 83.2 83.15 83.1 83.05 83 82.95 82.9 82.85 82.8 82.75 82.7 82.65 82.6 82.55 82.5 82.45 82.4 82.35 82.3 82.25 82.2 82.15 82.1 82.05 82 81.95 81.9 81.85 81.8 81.75 81.7 81.65 81.6 81.55 81.5 81.45 81.4 81.35 81.3 81.25 81.2 81.15 81.1 81.05 81 80.95 80.9 80.85 80.8 80.75 80.7 80.65 80.6 80.55 80.5 80.45 80.4 80.35 80.3 80.25 80.2 80.15 80.1 80.05 80 79.95 79.9 79.85 79.8 79.75 79.7 79.65 79.6 79.55 79.5 79.45 79.4 79.35 79.3 79.25 79.2 79.15 79.1 79.05 79 78.95 78.9 78.85 78.8 78.75 78.7 78.65 78.6 78.55 78.5 78.45 78.4 78.35 78.3 78.25 78.2 78.15 78.1 78.05 78 77.95 77.9 77.85 77.8 77.75 77.7 77.65 77.6 77.55 77.5 77.45 77.4 77.35 77.3 77.25 77.2 77.15 77.1 77.05 77 76.95 76.9 76.85 76.8 76.75 76.7 76.65 76.6 76.55 76.5 76.45 76.4 76.35 76.3 76.25 76.2 76.15 76.1 76.05 76 75.95 75.9 75.85 75.8 75.75 75.7 75.65 75.6 75.55 75.5 75.45 75.4 75.35 75.3 75.25 75.2 75.15 75.1 75.05 75 74.95 74.9 74.85 74.8 74.75 74.7 74.65 74.6 74.55 74.5 74.45 74.4 74.35 74.3 74.25 74.2 74.15 74.1 74.05 74 73.95 73.9 73.85 73.8 73.75 73.7 73.65 73.6 73.55 73.5 73.45 73.4 73.35 73.3 73.25 73.2 73.15 73.1 73.05 73 72.95 72.9 72.85 72.8 72.75 72.7 72.65 72.6 72.55 72.5 72.45 72.4 72.35 72.3 72.25 72.2 72.15 72.1 72.05 72 71.95 71.9 71.85 71.8 71.75 71.7 71.65 71.6 71.55 71.5 71.45 71.4 71.35 71.3 71.25 71.2 71.15 71.1 71.05 71 70.95 70.9 70.85 70.8 70.75 70.7 70.65 70.6 70.55 70.5 70.45 70.4 70.35 70.3 70.25 70.2 70.15 70.1 70.05 70 69.95 69.9 69.85 69.8 69.75 69.7 69.65 69.6 69.55 69.5 69.45 69.4 69.35 69.3 69.25 69.2 69.15 69.1 69.05 69 68.95 68.9 68.85 68.8 68.75 68.7 68.65 68.6 68.55 68.5 68.45 68.4 68.35 68.3 68.25 68.2 68.15 68.1 68.05 68

[Info 1]
Region Name=Cu_3p
Lens Mode=Transmission
Pass Energy=50
Number of Sweeps=30
Excitation Energy=400
Energy Scale=Binding
Acquisition Mode=Swept
Energy Unit=Kinetic
Center Energy=324
Low Energy=316
High Energy=332
Energy Step=0.05
Step Time=203
Detector First X-Channel=43
Detector Last X-Channel=659
Detector First Y-Channel=91
Detector Last Y-Channel=398
Number of Slices=1
File=Z:\XPS_data\2023\Mar2023\KIT\Cu-HHTP_0004.txt,.pxt,.ibw
Sequence=D:\old files\data2\data\Cu-HTTP_Mar_23.seq
Spectrum Name=Cu-HHTP__004
Instrument=R3000-6MS014
Location=Scienta
User=AN
Sample=Cu-HHTP
Comments=;
Date=2023-03-08
Time=12:07:12
Time per Spectrum Channel=675.99
DetectorMode=ADC
[Run Mode Information 1]



[Data 1]
 8.40000000000000E+0001  2.45639599561691E+0001
 8.39500000000000E+0001  2.43098191022873E+0001
 8.39000000000000E+0001  2.55119295716286E+0001
 8.38500000000000E+0001  2.41046968102455E+0001
 8.38000000000000E+0001  2.46364858150482E+0001
 8.37500000000000E+0001  2.54645158648491E+0001
 8.37000000000000E+0001  2.54393100738525E+0001
 8.36500000000000E+0001  2.63468499183655E+0001
 8.36000000000000E+0001  2.57652918100357E+0001
 8.35500000000000E+0001  2.51469717025757E+0001
 8.35000000000000E+0001  2.56870469450951E+0001
 8.34500000000000E+0001  2.53221192955971E+0001
 8.34000000000000E+0001  2.56995616555214E+0001
 8.33500000000000E+0001  2.51287692189217E+0001
 8.33000000000000E+0001  2.59952161312103E+0001
 8.32500000000000E+0001  2.49971869587898E+0001
 8.32000000000000E+0001  2.47407032251358E+0001
 8.31500000000000E+0001  2.56311118006706E+0001
 8.31000000000000E+0001  2.51814445257187E+0001
 8.30500000000000E+0001  2.51325244903564E+0001
 8.30000000000000E+0001  2.50937901735306E+0001
 8.29500000000000E+0001  2.53832575082779E+0001
 8.29000000000000E+0001  2.58273864388466E+0001
 8.28500000000000E+0001  2.59858737587929E+0001
 8.28000000000000E+0001  2.52409839034081E+0001
 8.27500000000000E+0001  2.44530717730522E+0001
 8.27000000000000E+0001  2.52387907505035E+0001
 8.26500000000000E+0001  2.53104158043861E+0001
 8.26000000000000E+0001  2.59939484596252E+0001
 8.25500000000000E+0001  2.61068739891052E+0001
 8.25000000000000E+0001  2.64969711303711E+0001
 8.24500000000000E+0001  2.65595260858536E+0001
 8.24000000000000E+0001  2.57853839993477E+0001
 8.23500000000000E+0001  2.52599195241928E+0001
 8.23000000000000E+0001  2.53124932050705E+0001
 8.22500000000000E+0001  2.54845485687256E+0001
 8.22000000000000E+0001  2.52377197146416E+0001
 8.21500000000000E+0001  2.54166004061699E+0001
 8.21000000000000E+0001  2.54680163860321E+0001
 8.20500000000000E+0001  2.53944264054298E+0001
 8.20000000000000E+0001  2.53842889666557E+0001
 8.19500000000000E+0001  2.61579210758209E+0001
 8.19000000000000E+0001  2.65736620426178E+0001
 8.18500000000000E+0001  2.56231559514999E+0001
 8.18000000000000E+0001  2.58956549167633E+0001
 8.17500000000000E+0001  2.60244107842445E+0001
 8.17000000000000E+0001  2.67594836354256E+0001
 8.16500000000000E+0001  2.56396549344063E+0001
 8.16000000000000E+0001  2.54488426446915E+0001
 8.15500000000000E+0001  2.55072850584984E+0001
 8.15000000000000E+0001  2.66828871369362E+0001
 8.14500000000000E+0001  2.76001715064049E+0001
 8.14000000000000E+0001  2.57804943323135E+0001
 8.13500000000000E+0001  2.63876762986183E+0001
 8.13000000000000E+0001  2.68186579942703E+0001
 8.12500000000000E+0001  2.70793604254723E+0001
 8.12000000000000E+0001  2.70769018530846E+0001
 8.11500000000000E+0001  2.57299631237984E+0001
 8.11000000000000E+0001  2.68010242581367E+0001
 8.10500000000000E+0001  2.62862904667854E+0001
 8.10000000000000E+0001  2.62741231918335E+0001
 8.09500000000000E+0001  2.68305649161339E+0001
 8.09000000000000E+0001  2.64549369215965E+0001
 8.08500000000000E+0001  2.70572983622551E+0001
 8.08000000000000E+0001  2.71384337544441E+0001
 8.07500000000000E+0001  2.79077299833298E+0001
 8.07000000000000E+0001  2.70149192214012E+0001
 8.06500000000000E+0001  2.84202973842621E+0001
 8.06000000000000E+0001  2.79959060549736E+0001
 8.05500000000000E+0001  2.86345800757408E+0001
 8.05000000000000E+0001  2.65107381939888E+0001
 8.04500000000000E+0001  2.85816931128502E+0001
 8.04000000000000E+0001  2.87546769380569E+0001
 8.03500000000000E+0001  2.89983622431755E+0001
 8.03000000000000E+0001  2.81767895221710E+0001
 8.02500000000000E+0001  2.84999591112137E+0001
 8.02000000000000E+0001  2.77554891109467E+0001
 8.01500000000000E+0001  2.82189316749573E+0001
 8.01000000000000E+0001  2.94691056609154E+0001
 8.00500000000000E+0001  2.96523041725159E+0001
 8.00000000000000E+0001  2.96502814292908E+0001
 7.99500000000000E+0001  2.98061158061028E+0001
 7.99000000000000E+0001  2.86726045608521E+0001
 7.98500000000000E+0001  2.95956657528877E+0001
 7.98000000000000E+0001  2.87728366851807E+0001
 7.97500000000000E+0001  2.95660999417305E+0001
 7.97000000000000E+0001  2.95112589597702E+0001
 7.96500000000000E+0001  2.84768936634064E+0001
 7.96000000000000E+0001  2.96920350790024E+0001
 7.95500000000000E+0001  3.02949080467224E+0001
 7.95000000000000E+0001  3.19893650412560E+0001
 7.94500000000000E+0001  3.01877521276474E+0001
 7.94000000000000E+0001  3.10177991390228E+0001
 7.93500000000000E+0001  3.03104868531227E+0001
 7.93000000000000E+0001  3.14706957936287E+0001
 7.92500000000000E+0001  3.18100441098213E+0001
 7.92000000000000E+0001  3.23843573331833E+0001
 7.91500000000000E+0001  3.08086800575256E+0001
 7.91000000000000E+0001  3.19489488601685E+0001
 7.90500000000000E+0001  3.12027595043182E+0001
 7.90000000000000E+0001  3.05150291919708E+0001
 7.89500000000000E+0001  3.19293715357780E+0001
 7.89000000000000E+0001  3.12708255052567E+0001
 7.88500000000000E+0001  3.23191553354263E+0001
 7.88000000000000E+0001  3.13083959817886E+0001
 7.87500000000000E+0001  3.16225161552429E+0001
 7.87000000000000E+0001  3.31470782756805E+0001
 7.86500000000000E+0001  3.28693250417709E+0001
 7.86000000000000E+0001  3.38017703890800E+0001
 7.85500000000000E+0001  3.37285735011101E+0001
 7.85000000000000E+0001  3.26171122789383E+0001
 7.84500000000000E+0001  3.35072485208511E+0001
 7.84000000000000E+0001  3.26306096911430E+0001
 7.83500000000000E+0001  3.25396835803986E+0001
 7.83000000000000E+0001  3.41490288376808E+0001
 7.82500000000000E+0001  3.23019939661026E+0001
 7.82000000000000E+0001  3.33543223142624E+0001
 7.81500000000000E+0001  3.22164151072502E+0001
 7.81000000000000E+0001  3.45332131981850E+0001
 7.80500000000000E+0001  3.29399029612541E+0001
 7.80000000000000E+0001  3.44672814011574E+0001
 7.79500000000000E+0001  3.42236775755882E+0001
 7.79000000000000E+0001  3.42519528269768E+0001
 7.78500000000000E+0001  3.37038847804070E+0001
 7.78000000000000E+0001  3.44985393881798E+0001
 7.77500000000000E+0001  3.42380343079567E+0001
 7.77000000000000E+0001  3.42694222927094E+0001
 7.76500000000000E+0001  3.45315041542053E+0001
 7.76000000000000E+0001  3.35658462047577E+0001
 7.75500000000000E+0001  3.38277987241745E+0001
 7.75000000000000E+0001  3.38991614580154E+0001
 7.74500000000000E+0001  3.42722225189209E+0001
 7.74000000000000E+0001  3.54969397783279E+0001
 7.73500000000000E+0001  3.50809180736542E+0001
 7.73000000000000E+0001  3.41885932087898E+0001
 7.72500000000000E+0001  3.54436330199242E+0001
 7.72000000000000E+0001  3.59461422562599E+0001
 7.71500000000000E+0001  3.43766223788261E+0001
 7.71000000000000E+0001  3.45096839666367E+0001
 7.70500000000000E+0001  3.56241731047630E+0001
 7.70000000000000E+0001  3.47713667750359E+0001
 7.69500000000000E+0001  3.47565147876740E+0001
 7.69000000000000E+0001  3.47273619174957E+0001
 7.68500000000000E+0001  3.65663762688637E+0001
 7.68000000000000E+0001  3.51876100897789E+0001
 7.67500000000000E+0001  3.55858537554741E+0001
 7.67000000000000E+0001  3.44341925978661E+0001
 7.66500000000000E+0001  3.50138383507729E+0001
 7.66000000000000E+0001  3.54505476355553E+0001
 7.65500000000000E+0001  3.59597145318985E+0001
 7.65000000000000E+0001  3.55472250580788E+0001
 7.64500000000000E+0001  3.51928491592407E+0001
 7.64000000000000E+0001  3.68644370436668E+0001
 7.63500000000000E+0001  3.54013071060181E+0001
 7.63000000000000E+0001  3.55800911188126E+0001
 7.62500000000000E+0001  3.40378367304802E+0001
 7.62000000000000E+0001  3.40891931653023E+0001
 7.61500000000000E+0001  3.47238209247589E+0001
 7.61000000000000E+0001  3.42240467071533E+0001
 7.60500000000000E+0001  3.42627495527267E+0001
 7.60000000000000E+0001  3.42628988623619E+0001
 7.59500000000000E+0001  3.50981643199921E+0001
 7.59000000000000E+0001  3.48378587365150E+0001
 7.58500000000000E+0001  3.40857768654823E+0001
 7.58000000000000E+0001  3.40624770522118E+0001
 7.57500000000000E+0001  3.39844822883606E+0001
 7.57000000000000E+0001  3.38845131397247E+0001
 7.56500000000000E+0001  3.30314604043961E+0001
 7.56000000000000E+0001  3.35115388631821E+0001
 7.55500000000000E+0001  3.27399001717567E+0001
 7.55000000000000E+0001  3.13315502405167E+0001
 7.54500000000000E+0001  3.10993205308914E+0001
 7.54000000000000E+0001  3.10344774723053E+0001
 7.53500000000000E+0001  3.10202776789665E+0001
 7.53000000000000E+0001  3.19712858200073E+0001
 7.52500000000000E+0001  3.12679480910301E+0001
 7.52000000000000E+0001  3.10061348676682E+0001
 7.51500000000000E+0001  2.98100451231003E+0001
 7.51000000000000E+0001  3.04008858799934E+0001
 7.50500000000000E+0001  3.01451016664505E+0001
 7.50000000000000E+0001  3.09297423958778E+0001
 7.49500000000000E+0001  3.10480949878693E+0001
 7.49000000000000E+0001  3.07267945408821E+0001
 7.48500000000000E+0001  3.12151620388031E+0001
 7.48000000000000E+0001  2.97850426435471E+0001
 7.47500000000000E+0001  2.93106405735016E+0001
 7.47000000000000E+0001  3.02764390110970E+0001
 7.46500000000000E+0001  2.93759496212006E+0001
 7.46000000000000E+0001  2.84538703560829E+0001
 7.45500000000000E+0001  2.93947274684906E+0001
 7.45000000000000E+0001  2.71164937019348E+0001
 7.44500000000000E+0001  2.72461937665939E+0001
 7.44000000000000E+0001  2.89682599306107E+0001
 7.43500000000000E+0001  2.69442724585533E+0001
 7.43000000000000E+0001  2.78797115683556E+0001
 7.42500000000000E+0001  2.68063012361526E+0001
 7.42000000000000E+0001  2.72540645599365E+0001
 7.41500000000000E+0001  2.64228920936584E+0001
 7.41000000000000E+0001  2.55235262513161E+0001
 7.40500000000000E+0001  2.64273332357407E+0001
 7.40000000000000E+0001  2.62172258496284E+0001
 7.39500000000000E+0001  2.56746697425842E+0001
 7.39000000000000E+0001  2.48449466824532E+0001
 7.38500000000000E+0001  2.52938653826714E+0001
 7.38000000000000E+0001  2.57200849056244E+0001
 7.37500000000000E+0001  2.47882204055786E+0001
 7.37000000000000E+0001  2.36093377470970E+0001
 7.36500000000000E+0001  2.42290497422218E+0001
 7.36000000000000E+0001  2.44042987227440E+0001
 7.35500000000000E+0001  2.47605664134026E+0001
 7.35000000000000E+0001  2.42142020463943E+0001
 7.34500000000000E+0001  2.44357508420944E+0001
 7.34000000000000E+0001  2.40972799062729E+0001
 7.33500000000000E+0001  2.34118672013283E+0001
 7.33000000000000E+0001  2.42679255008698E+0001
 7.32500000000000E+0001  2.33938003182411E+0001
 7.32000000000000E+0001  2.52797532081604E+0001
 7.31500000000000E+0001  2.35133933424950E+0001
 7.31000000000000E+0001  2.29383775591850E+0001
 7.30500000000000E+0001  2.43797388672829E+0001
 7.30000000000000E+0001  2.31014652848244E+0001
 7.29500000000000E+0001  2.36379048824310E+0001
 7.29000000000000E+0001  2.22371892333031E+0001
 7.28500000000000E+0001  2.18320454359055E+0001
 7.28000000000000E+0001  2.24033787250519E+0001
 7.27500000000000E+0001  2.30534870624542E+0001
 7.27000000000000E+0001  2.23163246512413E+0001
 7.26500000000000E+0001  2.34578080773354E+0001
 7.26000000000000E+0001  2.25356231331825E+0001
 7.25500000000000E+0001  2.20724101066589E+0001
 7.25000000000000E+0001  2.26295350790024E+0001
 7.24500000000000E+0001  2.26560626029968E+0001
 7.24000000000000E+0001  2.18843709230423E+0001
 7.23500000000000E+0001  2.21528809070587E+0001
 7.23000000000000E+0001  2.29771879911423E+0001
 7.22500000000000E+0001  2.20850807428360E+0001
 7.22000000000000E+0001  2.16186729073524E+0001
 7.21500000000000E+0001  2.24805656671524E+0001
 7.21000000000000E+0001  2.28707247376442E+0001
 7.20500000000000E+0001  2.27465551495552E+0001
 7.20000000000000E+0001  2.18996431827545E+0001
 7.19500000000000E+0001  2.24993218183517E+0001
 7.19000000000000E+0001  2.18586025238037E+0001
 7.18500000000000E+0001  2.16970574855804E+0001
 7.18000000000000E+0001  2.14432915449142E+0001
 7.17500000000000E+0001  2.15624563395977E+0001
 7.17000000000000E+0001  2.09678559601307E+0001
 7.16500000000000E+0001  2.12350223064423E+0001
 7.16000000000000E+0001  2.19003936052322E+0001
 7.15500000000000E+0001  2.26308842897415E+0001
 7.15000000000000E+0001  2.25184190273285E+0001
 7.14500000000000E+0001  2.19922003149986E+0001
 7.14000000000000E+0001  2.18752888441086E+0001
 7.13500000000000E+0001  2.17577799856663E+0001
 7.13000000000000E+0001  2.06593415141106E+0001
 7.12500000000000E+0001  2.19484729468822E+0001
 7.12000000000000E+0001  2.08512556254864E+0001
 7.11500000000000E+0001  2.14662683308125E+0001
 7.11000000000000E+0001  2.15192687511444E+0001
 7.10500000000000E+0001  2.17155811190605E+0001
 7.10000000000000E+0001  2.09553698301315E+0001
 7.09500000000000E+0001  2.08635021448135E+0001
 7.09000000000000E+0001  2.12077475488186E+0001
 7.08500000000000E+0001  2.18400595188141E+0001
 7.08000000000000E+0001  2.23329697847366E+0001
 7.07500000000000E+0001  2.10228815674782E+0001
 7.07000000000000E+0001  2.17053763866425E+0001
 7.06500000000000E+0001  2.21506417989731E+0001
 7.06000000000000E+0001  2.10967889130116E+0001
 7.05500000000000E+0001  2.16641513109207E+0001
 7.05000000000000E+0001  2.19912239909172E+0001
 7.04500000000000E+0001  2.19784606099129E+0001
 7.04000000000000E+0001  2.12185002863407E+0001
 7.03500000000000E+0001  2.09278702735901E+0001
 7.03000000000000E+0001  2.09956558346748E+0001
 7.02500000000000E+0001  2.12629812955856E+0001
 7.02000000000000E+0001  2.17439679503441E+0001
 7.01500000000000E+0001  2.16062101125717E+0001
 7.01000000000000E+0001  2.11094295978546E+0001
 7.00500000000000E+0001  2.08324544429779E+0001
 7.00000000000000E+0001  2.07934156358242E+0001
 6.99500000000000E+0001  2.25253241658211E+0001
 6.99000000000000E+0001  2.10602115988731E+0001
 6.98500000000000E+0001  2.07811439633369E+0001
 6.98000000000000E+0001  2.14722634851933E+0001
 6.97500000000000E+0001  2.15084642171860E+0001
 6.97000000000000E+0001  2.26927993893623E+0001
 6.96500000000000E+0001  2.14637293815613E+0001
 6.96000000000000E+0001  2.08935649096966E+0001
 6.95500000000000E+0001  2.07334267199039E+0001
 6.95000000000000E+0001  2.23407519161701E+0001
 6.94500000000000E+0001  2.06213812232018E+0001
 6.94000000000000E+0001  2.18631558418274E+0001
 6.93500000000000E+0001  2.17813144922256E+0001
 6.93000000000000E+0001  2.10085725486279E+0001
 6.92500000000000E+0001  2.17886238694191E+0001
 6.92000000000000E+0001  2.14908852875233E+0001
 6.91500000000000E+0001  2.10724949240685E+0001
 6.91000000000000E+0001  2.20633596181870E+0001
 6.90500000000000E+0001  2.10755145549774E+0001
 6.90000000000000E+0001  2.18382933139801E+0001
 6.89500000000000E+0001  1.99264218807220E+0001
 6.89000000000000E+0001  2.13409891128540E+0001
 6.88500000000000E+0001  2.18586451411247E+0001
 6.88000000000000E+0001  2.19540611505508E+0001
 6.87500000000000E+0001  2.23259286284447E+0001
 6.87000000000000E+0001  2.13557925820351E+0001
 6.86500000000000E+0001  2.07264931201935E+0001
 6.86000000000000E+0001  2.08932480812073E+0001
 6.85500000000000E+0001  2.09259620308876E+0001
 6.85000000000000E+0001  2.02396226227283E+0001
 6.84500000000000E+0001  2.08852382004261E+0001
 6.84000000000000E+0001  2.05768004059792E+0001
 6.83500000000000E+0001  2.18747135400772E+0001
 6.83000000000000E+0001  2.05843635201454E+0001
 6.82500000000000E+0001  2.08589738607407E+0001
 6.82000000000000E+0001  2.08292588591576E+0001
 6.81500000000000E+0001  2.07323189973831E+0001
 6.81000000000000E+0001  2.06752979457378E+0001
 6.80500000000000E+0001  2.17443267405033E+0001
 6.80000000000000E+0001  2.11909084916115E+0001

