[Info]
Number of Regions=0001
Version=1.3.1

[Region 1]
Region Name=C 1s
Dimension 1 name=Binding Energy [eV]
Dimension 1 size=321
Dimension 1 scale=296 295.95 295.9 295.85 295.8 295.75 295.7 295.65 295.6 295.55 295.5 295.45 295.4 295.35 295.3 295.25 295.2 295.15 295.1 295.05 295 294.95 294.9 294.85 294.8 294.75 294.7 294.65 294.6 294.55 294.5 294.45 294.4 294.35 294.3 294.25 294.2 294.15 294.1 294.05 294 293.95 293.9 293.85 293.8 293.75 293.7 293.65 293.6 293.55 293.5 293.45 293.4 293.35 293.3 293.25 293.2 293.15 293.1 293.05 293 292.95 292.9 292.85 292.8 292.75 292.7 292.65 292.6 292.55 292.5 292.45 292.4 292.35 292.3 292.25 292.2 292.15 292.1 292.05 292 291.95 291.9 291.85 291.8 291.75 291.7 291.65 291.6 291.55 291.5 291.45 291.4 291.35 291.3 291.25 291.2 291.15 291.1 291.05 291 290.95 290.9 290.85 290.8 290.75 290.7 290.65 290.6 290.55 290.5 290.45 290.4 290.35 290.3 290.25 290.2 290.15 290.1 290.05 290 289.95 289.9 289.85 289.8 289.75 289.7 289.65 289.6 289.55 289.5 289.45 289.4 289.35 289.3 289.25 289.2 289.15 289.1 289.05 289 288.95 288.9 288.85 288.8 288.75 288.7 288.65 288.6 288.55 288.5 288.45 288.4 288.35 288.3 288.25 288.2 288.15 288.1 288.05 288 287.95 287.9 287.85 287.8 287.75 287.7 287.65 287.6 287.55 287.5 287.45 287.4 287.35 287.3 287.25 287.2 287.15 287.1 287.05 287 286.95 286.9 286.85 286.8 286.75 286.7 286.65 286.6 286.55 286.5 286.45 286.4 286.35 286.3 286.25 286.2 286.15 286.1 286.05 286 285.95 285.9 285.85 285.8 285.75 285.7 285.65 285.6 285.55 285.5 285.45 285.4 285.35 285.3 285.25 285.2 285.15 285.1 285.05 285 284.95 284.9 284.85 284.8 284.75 284.7 284.65 284.6 284.55 284.5 284.45 284.4 284.35 284.3 284.25 284.2 284.15 284.1 284.05 284 283.95 283.9 283.85 283.8 283.75 283.7 283.65 283.6 283.55 283.5 283.45 283.4 283.35 283.3 283.25 283.2 283.15 283.1 283.05 283 282.95 282.9 282.85 282.8 282.75 282.7 282.65 282.6 282.55 282.5 282.45 282.4 282.35 282.3 282.25 282.2 282.15 282.1 282.05 282 281.95 281.9 281.85 281.8 281.75 281.7 281.65 281.6 281.55 281.5 281.45 281.4 281.35 281.3 281.25 281.2 281.15 281.1 281.05 281 280.95 280.9 280.85 280.8 280.75 280.7 280.65 280.6 280.55 280.5 280.45 280.4 280.35 280.3 280.25 280.2 280.15 280.1 280.05 280

[Info 1]
Region Name=C 1s
Lens Mode=Transmission
Pass Energy=50
Number of Sweeps=10
Excitation Energy=400
Energy Scale=Binding
Acquisition Mode=Swept
Energy Unit=Kinetic
Center Energy=112
Low Energy=104
High Energy=120
Energy Step=0.05
Step Time=203
Detector First X-Channel=43
Detector Last X-Channel=659
Detector First Y-Channel=91
Detector Last Y-Channel=398
Number of Slices=1
File=Z:\XPS_data\2023\Mar2023\KIT\Cu-HHTP_0003.txt,.pxt,.ibw
Sequence=D:\old files\data2\data\Cu-HTTP_Mar_23.seq
Spectrum Name=Cu-HHTP__003
Instrument=R3000-6MS014
Location=Scienta
User=AN
Sample=Cu-HHTP
Comments=;
Date=2023-03-08
Time=11:48:06
Time per Spectrum Channel=225.33
DetectorMode=ADC
[Run Mode Information 1]



[Data 1]
 2.96000000000000E+0002  7.96359515190125E+0001
 2.95950000000000E+0002  7.78419585227966E+0001
 2.95900000000000E+0002  7.68527607917786E+0001
 2.95850000000000E+0002  7.63866138458252E+0001
 2.95800000000000E+0002  7.54219579696655E+0001
 2.95750000000000E+0002  7.53240880966186E+0001
 2.95700000000000E+0002  7.67295103073120E+0001
 2.95650000000000E+0002  7.46791510581970E+0001
 2.95600000000000E+0002  7.58336625099182E+0001
 2.95550000000000E+0002  7.45360937118530E+0001
 2.95500000000000E+0002  7.72993741035461E+0001
 2.95450000000000E+0002  7.38941311836243E+0001
 2.95400000000000E+0002  7.44260082244873E+0001
 2.95350000000000E+0002  7.34466834068298E+0001
 2.95300000000000E+0002  7.51639776229858E+0001
 2.95250000000000E+0002  7.67418766021729E+0001
 2.95200000000000E+0002  7.50876774787903E+0001
 2.95150000000000E+0002  7.60711688995361E+0001
 2.95100000000000E+0002  7.50268955230713E+0001
 2.95050000000000E+0002  7.57525601387024E+0001
 2.95000000000000E+0002  7.45072917938232E+0001
 2.94950000000000E+0002  7.30406513214111E+0001
 2.94900000000000E+0002  7.31988954544067E+0001
 2.94850000000000E+0002  7.22172913551331E+0001
 2.94800000000000E+0002  7.10516476631165E+0001
 2.94750000000000E+0002  7.30779728889465E+0001
 2.94700000000000E+0002  7.36000037193298E+0001
 2.94650000000000E+0002  7.40997152328491E+0001
 2.94600000000000E+0002  7.19885869026184E+0001
 2.94550000000000E+0002  7.29121136665344E+0001
 2.94500000000000E+0002  7.19257245063782E+0001
 2.94450000000000E+0002  7.14821071624756E+0001
 2.94400000000000E+0002  7.20191988945007E+0001
 2.94350000000000E+0002  7.22097411155701E+0001
 2.94300000000000E+0002  7.19921269416809E+0001
 2.94250000000000E+0002  7.18396682739258E+0001
 2.94200000000000E+0002  7.19663972854614E+0001
 2.94150000000000E+0002  7.37362575531006E+0001
 2.94100000000000E+0002  7.37618613243103E+0001
 2.94050000000000E+0002  7.19998474121094E+0001
 2.94000000000000E+0002  7.23167185783386E+0001
 2.93950000000000E+0002  7.59072666168213E+0001
 2.93900000000000E+0002  7.54649276733398E+0001
 2.93850000000000E+0002  7.44301905632019E+0001
 2.93800000000000E+0002  7.39251866340637E+0001
 2.93750000000000E+0002  7.42203726768494E+0001
 2.93700000000000E+0002  7.42825117111206E+0001
 2.93650000000000E+0002  7.50463662147522E+0001
 2.93600000000000E+0002  7.40065245628357E+0001
 2.93550000000000E+0002  7.55806341171265E+0001
 2.93500000000000E+0002  7.53959884643555E+0001
 2.93450000000000E+0002  7.55031576156616E+0001
 2.93400000000000E+0002  7.73976836204529E+0001
 2.93350000000000E+0002  7.52448372840881E+0001
 2.93300000000000E+0002  7.57050023078918E+0001
 2.93250000000000E+0002  7.54714570045471E+0001
 2.93200000000000E+0002  7.59717774391174E+0001
 2.93150000000000E+0002  7.68375911712647E+0001
 2.93100000000000E+0002  7.72702975273132E+0001
 2.93050000000000E+0002  7.55680665969849E+0001
 2.93000000000000E+0002  7.62766771316528E+0001
 2.92950000000000E+0002  7.53266186714172E+0001
 2.92900000000000E+0002  7.73663029670715E+0001
 2.92850000000000E+0002  7.84307761192322E+0001
 2.92800000000000E+0002  7.74763169288635E+0001
 2.92750000000000E+0002  7.54983000755310E+0001
 2.92700000000000E+0002  7.59324169158936E+0001
 2.92650000000000E+0002  7.54563484191895E+0001
 2.92600000000000E+0002  7.62546672821045E+0001
 2.92550000000000E+0002  7.70710544586182E+0001
 2.92500000000000E+0002  7.41068491935730E+0001
 2.92450000000000E+0002  7.42677726745606E+0001
 2.92400000000000E+0002  7.41877303123474E+0001
 2.92350000000000E+0002  7.45822820663452E+0001
 2.92300000000000E+0002  7.11580510139465E+0001
 2.92250000000000E+0002  7.25416016578674E+0001
 2.92200000000000E+0002  7.35778274536133E+0001
 2.92150000000000E+0002  7.27156281471252E+0001
 2.92100000000000E+0002  7.14963145256042E+0001
 2.92050000000000E+0002  7.15920252799988E+0001
 2.92000000000000E+0002  7.38568191528320E+0001
 2.91950000000000E+0002  6.94122810363770E+0001
 2.91900000000000E+0002  7.18003926277161E+0001
 2.91850000000000E+0002  7.22121453285217E+0001
 2.91800000000000E+0002  7.08887710571289E+0001
 2.91750000000000E+0002  7.22311568260193E+0001
 2.91700000000000E+0002  7.13161859512329E+0001
 2.91650000000000E+0002  7.06593003273010E+0001
 2.91600000000000E+0002  7.19987602233887E+0001
 2.91550000000000E+0002  7.11419134140015E+0001
 2.91500000000000E+0002  7.12684726715088E+0001
 2.91450000000000E+0002  7.27973046302795E+0001
 2.91400000000000E+0002  7.26397323608398E+0001
 2.91350000000000E+0002  7.36269116401672E+0001
 2.91300000000000E+0002  7.65079841613769E+0001
 2.91250000000000E+0002  7.41936416625977E+0001
 2.91200000000000E+0002  7.31124405860901E+0001
 2.91150000000000E+0002  7.49956736564636E+0001
 2.91100000000000E+0002  7.44949412345886E+0001
 2.91050000000000E+0002  7.60072913169861E+0001
 2.91000000000000E+0002  7.55319857597351E+0001
 2.90950000000000E+0002  7.60279831886291E+0001
 2.90900000000000E+0002  7.59311909675598E+0001
 2.90850000000000E+0002  7.44536671638489E+0001
 2.90800000000000E+0002  7.50609526634216E+0001
 2.90750000000000E+0002  7.45168504714966E+0001
 2.90700000000000E+0002  7.60586585998535E+0001
 2.90650000000000E+0002  7.70645337104797E+0001
 2.90600000000000E+0002  7.56329302787781E+0001
 2.90550000000000E+0002  7.58569645881653E+0001
 2.90500000000000E+0002  7.53612327575684E+0001
 2.90450000000000E+0002  7.60160055160522E+0001
 2.90400000000000E+0002  7.83242864608765E+0001
 2.90350000000000E+0002  7.58325877189636E+0001
 2.90300000000000E+0002  7.53314208984375E+0001
 2.90250000000000E+0002  7.46566085815430E+0001
 2.90200000000000E+0002  7.75140228271484E+0001
 2.90150000000000E+0002  7.64911704063416E+0001
 2.90100000000000E+0002  7.65647268295288E+0001
 2.90050000000000E+0002  7.70689659118652E+0001
 2.90000000000000E+0002  7.47468018531799E+0001
 2.89950000000000E+0002  7.76468319892883E+0001
 2.89900000000000E+0002  7.92053012847900E+0001
 2.89850000000000E+0002  7.53995690345764E+0001
 2.89800000000000E+0002  7.57013278007507E+0001
 2.89750000000000E+0002  7.74601926803589E+0001
 2.89700000000000E+0002  7.81571130752563E+0001
 2.89650000000000E+0002  7.98069696426392E+0001
 2.89600000000000E+0002  7.82972569465637E+0001
 2.89550000000000E+0002  8.23407096862793E+0001
 2.89500000000000E+0002  8.00565333366394E+0001
 2.89450000000000E+0002  8.00645070075989E+0001
 2.89400000000000E+0002  8.14915580749512E+0001
 2.89350000000000E+0002  8.28580245971680E+0001
 2.89300000000000E+0002  8.37510023117065E+0001
 2.89250000000000E+0002  8.32664141654968E+0001
 2.89200000000000E+0002  8.64017829895020E+0001
 2.89150000000000E+0002  8.65202455520630E+0001
 2.89100000000000E+0002  8.82488803863526E+0001
 2.89050000000000E+0002  8.97679395675659E+0001
 2.89000000000000E+0002  9.22301921844482E+0001
 2.88950000000000E+0002  9.51408672332764E+0001
 2.88900000000000E+0002  9.67866182327271E+0001
 2.88850000000000E+0002  9.79853467941284E+0001
 2.88800000000000E+0002  9.76934318542481E+0001
 2.88750000000000E+0002  1.01637103080750E+0002
 2.88700000000000E+0002  1.03860302925110E+0002
 2.88650000000000E+0002  1.05910981178284E+0002
 2.88600000000000E+0002  1.08899832725525E+0002
 2.88550000000000E+0002  1.10455910682678E+0002
 2.88500000000000E+0002  1.08668073654175E+0002
 2.88450000000000E+0002  1.12464947700500E+0002
 2.88400000000000E+0002  1.11165308952332E+0002
 2.88350000000000E+0002  1.13817735671997E+0002
 2.88300000000000E+0002  1.15370873451233E+0002
 2.88250000000000E+0002  1.15568211555481E+0002
 2.88200000000000E+0002  1.14997030258179E+0002
 2.88150000000000E+0002  1.15605044364929E+0002
 2.88100000000000E+0002  1.17330435752869E+0002
 2.88050000000000E+0002  1.20418843269348E+0002
 2.88000000000000E+0002  1.17960638999939E+0002
 2.87950000000000E+0002  1.18884882926941E+0002
 2.87900000000000E+0002  1.19750292778015E+0002
 2.87850000000000E+0002  1.19825336456299E+0002
 2.87800000000000E+0002  1.20784949302673E+0002
 2.87750000000000E+0002  1.21832347869873E+0002
 2.87700000000000E+0002  1.19803443908691E+0002
 2.87650000000000E+0002  1.21568423271179E+0002
 2.87600000000000E+0002  1.23187460899353E+0002
 2.87550000000000E+0002  1.21038935661316E+0002
 2.87500000000000E+0002  1.16842396736145E+0002
 2.87450000000000E+0002  1.16970488548279E+0002
 2.87400000000000E+0002  1.16647739410400E+0002
 2.87350000000000E+0002  1.14113984107971E+0002
 2.87300000000000E+0002  1.15174265861511E+0002
 2.87250000000000E+0002  1.14669912338257E+0002
 2.87200000000000E+0002  1.12265911102295E+0002
 2.87150000000000E+0002  1.12968071937561E+0002
 2.87100000000000E+0002  1.14245838165283E+0002
 2.87050000000000E+0002  1.13544332504272E+0002
 2.87000000000000E+0002  1.10185550689697E+0002
 2.86950000000000E+0002  1.10822134017944E+0002
 2.86900000000000E+0002  1.12369856834412E+0002
 2.86850000000000E+0002  1.12471487045288E+0002
 2.86800000000000E+0002  1.14002129554749E+0002
 2.86750000000000E+0002  1.15803469657898E+0002
 2.86700000000000E+0002  1.18311947822571E+0002
 2.86650000000000E+0002  1.19521717071533E+0002
 2.86600000000000E+0002  1.22410620689392E+0002
 2.86550000000000E+0002  1.24544299125671E+0002
 2.86500000000000E+0002  1.26747762680054E+0002
 2.86450000000000E+0002  1.26739698410034E+0002
 2.86400000000000E+0002  1.29210605621338E+0002
 2.86350000000000E+0002  1.31313942909241E+0002
 2.86300000000000E+0002  1.34794242858887E+0002
 2.86250000000000E+0002  1.38868526458740E+0002
 2.86200000000000E+0002  1.40777113914490E+0002
 2.86150000000000E+0002  1.41682883262634E+0002
 2.86100000000000E+0002  1.44308337211609E+0002
 2.86050000000000E+0002  1.44251428604126E+0002
 2.86000000000000E+0002  1.47937128067017E+0002
 2.85950000000000E+0002  1.50429285049438E+0002
 2.85900000000000E+0002  1.56128151893616E+0002
 2.85850000000000E+0002  1.53211130142212E+0002
 2.85800000000000E+0002  1.55679978370666E+0002
 2.85750000000000E+0002  1.59764933586121E+0002
 2.85700000000000E+0002  1.62382718086243E+0002
 2.85650000000000E+0002  1.63611680984497E+0002
 2.85600000000000E+0002  1.66340834617615E+0002
 2.85550000000000E+0002  1.67865543365479E+0002
 2.85500000000000E+0002  1.70949460983276E+0002
 2.85450000000000E+0002  1.79337871551514E+0002
 2.85400000000000E+0002  1.81798515319824E+0002
 2.85350000000000E+0002  1.84204732894897E+0002
 2.85300000000000E+0002  1.89933675765991E+0002
 2.85250000000000E+0002  1.97850753784180E+0002
 2.85200000000000E+0002  2.02912469863892E+0002
 2.85150000000000E+0002  2.08297554016113E+0002
 2.85100000000000E+0002  2.19375928878784E+0002
 2.85050000000000E+0002  2.24933532714844E+0002
 2.85000000000000E+0002  2.35546512603760E+0002
 2.84950000000000E+0002  2.42054740905762E+0002
 2.84900000000000E+0002  2.49882001876831E+0002
 2.84850000000000E+0002  2.64728681564331E+0002
 2.84800000000000E+0002  2.75170909881592E+0002
 2.84750000000000E+0002  2.82304023742676E+0002
 2.84700000000000E+0002  2.94055643081665E+0002
 2.84650000000000E+0002  2.99094043731689E+0002
 2.84600000000000E+0002  3.12664833068848E+0002
 2.84550000000000E+0002  3.15393165588379E+0002
 2.84500000000000E+0002  3.21250299453735E+0002
 2.84450000000000E+0002  3.29465419769287E+0002
 2.84400000000000E+0002  3.31929317474365E+0002
 2.84350000000000E+0002  3.39448478698730E+0002
 2.84300000000000E+0002  3.42802139282227E+0002
 2.84250000000000E+0002  3.38708965301514E+0002
 2.84200000000000E+0002  3.35789672851562E+0002
 2.84150000000000E+0002  3.32380882263184E+0002
 2.84100000000000E+0002  3.30313709259033E+0002
 2.84050000000000E+0002  3.21411689758301E+0002
 2.84000000000000E+0002  3.13387168884277E+0002
 2.83950000000000E+0002  3.07228013992310E+0002
 2.83900000000000E+0002  2.95570215225220E+0002
 2.83850000000000E+0002  2.79599977493286E+0002
 2.83800000000000E+0002  2.66751173019409E+0002
 2.83750000000000E+0002  2.47943380355835E+0002
 2.83700000000000E+0002  2.36568284988403E+0002
 2.83650000000000E+0002  2.19917644500732E+0002
 2.83600000000000E+0002  2.07263208389282E+0002
 2.83550000000000E+0002  1.89849039077759E+0002
 2.83500000000000E+0002  1.77612611770630E+0002
 2.83450000000000E+0002  1.64024509429932E+0002
 2.83400000000000E+0002  1.51492727279663E+0002
 2.83350000000000E+0002  1.39923047065735E+0002
 2.83300000000000E+0002  1.28867490768433E+0002
 2.83250000000000E+0002  1.18942451477051E+0002
 2.83200000000000E+0002  1.11663375854492E+0002
 2.83150000000000E+0002  1.01291716575623E+0002
 2.83100000000000E+0002  9.40789175033569E+0001
 2.83050000000000E+0002  8.99956903457642E+0001
 2.83000000000000E+0002  8.65229358673096E+0001
 2.82950000000000E+0002  7.95695462226868E+0001
 2.82900000000000E+0002  7.64516377449036E+0001
 2.82850000000000E+0002  7.30055341720581E+0001
 2.82800000000000E+0002  6.94768481254578E+0001
 2.82750000000000E+0002  6.52849884033203E+0001
 2.82700000000000E+0002  6.32663502693176E+0001
 2.82650000000000E+0002  6.03864445686340E+0001
 2.82600000000000E+0002  5.85651526451111E+0001
 2.82550000000000E+0002  5.68006534576416E+0001
 2.82500000000000E+0002  5.53009757995605E+0001
 2.82450000000000E+0002  5.30972137451172E+0001
 2.82400000000000E+0002  5.30368609428406E+0001
 2.82350000000000E+0002  5.21053829193115E+0001
 2.82300000000000E+0002  5.06456127166748E+0001
 2.82250000000000E+0002  4.81628880500793E+0001
 2.82200000000000E+0002  4.72633166313171E+0001
 2.82150000000000E+0002  4.68509349822998E+0001
 2.82100000000000E+0002  4.76126646995544E+0001
 2.82050000000000E+0002  4.77268767356873E+0001
 2.82000000000000E+0002  4.62344746589661E+0001
 2.81950000000000E+0002  4.71436724662781E+0001
 2.81900000000000E+0002  4.62891998291016E+0001
 2.81850000000000E+0002  4.61599512100220E+0001
 2.81800000000000E+0002  4.81303935050964E+0001
 2.81750000000000E+0002  4.58045954704285E+0001
 2.81700000000000E+0002  4.76000370979309E+0001
 2.81650000000000E+0002  4.61153485774994E+0001
 2.81600000000000E+0002  4.55051479339600E+0001
 2.81550000000000E+0002  4.66782302856445E+0001
 2.81500000000000E+0002  4.66995167732239E+0001
 2.81450000000000E+0002  4.72793040275574E+0001
 2.81400000000000E+0002  4.62657904624939E+0001
 2.81350000000000E+0002  4.69076585769653E+0001
 2.81300000000000E+0002  4.57144422531128E+0001
 2.81250000000000E+0002  4.65522637367249E+0001
 2.81200000000000E+0002  4.80190625190735E+0001
 2.81150000000000E+0002  4.50183110237122E+0001
 2.81100000000000E+0002  4.53627519607544E+0001
 2.81050000000000E+0002  4.46313090324402E+0001
 2.81000000000000E+0002  4.52569451332092E+0001
 2.80950000000000E+0002  4.82485089302063E+0001
 2.80900000000000E+0002  4.62832689285278E+0001
 2.80850000000000E+0002  4.45452425479889E+0001
 2.80800000000000E+0002  4.52809333801270E+0001
 2.80750000000000E+0002  4.60963954925537E+0001
 2.80700000000000E+0002  4.53958654403687E+0001
 2.80650000000000E+0002  4.55910172462463E+0001
 2.80600000000000E+0002  4.60373191833496E+0001
 2.80550000000000E+0002  4.68858847618103E+0001
 2.80500000000000E+0002  4.47546329498291E+0001
 2.80450000000000E+0002  4.54067678451538E+0001
 2.80400000000000E+0002  4.80687108039856E+0001
 2.80350000000000E+0002  4.52218356132507E+0001
 2.80300000000000E+0002  4.50853109359741E+0001
 2.80250000000000E+0002  4.60153312683105E+0001
 2.80200000000000E+0002  4.54068102836609E+0001
 2.80150000000000E+0002  4.55889749526978E+0001
 2.80100000000000E+0002  4.47843837738037E+0001
 2.80050000000000E+0002  4.35628061294556E+0001
 2.80000000000000E+0002  4.43945565223694E+0001

