[Info]
Number of Regions=0001
Version=1.3.1

[Region 1]
Region Name=survey
Dimension 1 name=Binding Energy [eV]
Dimension 1 size=1221
Dimension 1 scale=600 599.5 599 598.5 598 597.5 597 596.5 596 595.5 595 594.5 594 593.5 593 592.5 592 591.5 591 590.5 590 589.5 589 588.5 588 587.5 587 586.5 586 585.5 585 584.5 584 583.5 583 582.5 582 581.5 581 580.5 580 579.5 579 578.5 578 577.5 577 576.5 576 575.5 575 574.5 574 573.5 573 572.5 572 571.5 571 570.5 570 569.5 569 568.5 568 567.5 567 566.5 566 565.5 565 564.5 564 563.5 563 562.5 562 561.5 561 560.5 560 559.5 559 558.5 558 557.5 557 556.5 556 555.5 555 554.5 554 553.5 553 552.5 552 551.5 551 550.5 550 549.5 549 548.5 548 547.5 547 546.5 546 545.5 545 544.5 544 543.5 543 542.5 542 541.5 541 540.5 540 539.5 539 538.5 538 537.5 537 536.5 536 535.5 535 534.5 534 533.5 533 532.5 532 531.5 531 530.5 530 529.5 529 528.5 528 527.5 527 526.5 526 525.5 525 524.5 524 523.5 523 522.5 522 521.5 521 520.5 520 519.5 519 518.5 518 517.5 517 516.5 516 515.5 515 514.5 514 513.5 513 512.5 512 511.5 511 510.5 510 509.5 509 508.5 508 507.5 507 506.5 506 505.5 505 504.5 504 503.5 503 502.5 502 501.5 501 500.5 500 499.5 499 498.5 498 497.5 497 496.5 496 495.5 495 494.5 494 493.5 493 492.5 492 491.5 491 490.5 490 489.5 489 488.5 488 487.5 487 486.5 486 485.5 485 484.5 484 483.5 483 482.5 482 481.5 481 480.5 480 479.5 479 478.5 478 477.5 477 476.5 476 475.5 475 474.5 474 473.5 473 472.5 472 471.5 471 470.5 470 469.5 469 468.5 468 467.5 467 466.5 466 465.5 465 464.5 464 463.5 463 462.5 462 461.5 461 460.5 460 459.5 459 458.5 458 457.5 457 456.5 456 455.5 455 454.5 454 453.5 453 452.5 452 451.5 451 450.5 450 449.5 449 448.5 448 447.5 447 446.5 446 445.5 445 444.5 444 443.5 443 442.5 442 441.5 441 440.5 440 439.5 439 438.5 438 437.5 437 436.5 436 435.5 435 434.5 434 433.5 433 432.5 432 431.5 431 430.5 430 429.5 429 428.5 428 427.5 427 426.5 426 425.5 425 424.5 424 423.5 423 422.5 422 421.5 421 420.5 420 419.5 419 418.5 418 417.5 417 416.5 416 415.5 415 414.5 414 413.5 413 412.5 412 411.5 411 410.5 410 409.5 409 408.5 408 407.5 407 406.5 406 405.5 405 404.5 404 403.5 403 402.5 402 401.5 401 400.5 400 399.5 399 398.5 398 397.5 397 396.5 396 395.5 395 394.5 394 393.5 393 392.5 392 391.5 391 390.5 390 389.5 389 388.5 388 387.5 387 386.5 386 385.5 385 384.5 384 383.5 383 382.5 382 381.5 381 380.5 380 379.5 379 378.5 378 377.5 377 376.5 376 375.5 375 374.5 374 373.5 373 372.5 372 371.5 371 370.5 370 369.5 369 368.5 368 367.5 367 366.5 366 365.5 365 364.5 364 363.5 363 362.5 362 361.5 361 360.5 360 359.5 359 358.5 358 357.5 357 356.5 356 355.5 355 354.5 354 353.5 353 352.5 352 351.5 351 350.5 350 349.5 349 348.5 348 347.5 347 346.5 346 345.5 345 344.5 344 343.5 343 342.5 342 341.5 341 340.5 340 339.5 339 338.5 338 337.5 337 336.5 336 335.5 335 334.5 334 333.5 333 332.5 332 331.5 331 330.5 330 329.5 329 328.5 328 327.5 327 326.5 326 325.5 325 324.5 324 323.5 323 322.5 322 321.5 321 320.5 320 319.5 319 318.5 318 317.5 317 316.5 316 315.5 315 314.5 314 313.5 313 312.5 312 311.5 311 310.5 310 309.5 309 308.5 308 307.5 307 306.5 306 305.5 305 304.5 304 303.5 303 302.5 302 301.5 301 300.5 300 299.5 299 298.5 298 297.5 297 296.5 296 295.5 295 294.5 294 293.5 293 292.5 292 291.5 291 290.5 290 289.5 289 288.5 288 287.5 287 286.5 286 285.5 285 284.5 284 283.5 283 282.5 282 281.5 281 280.5 280 279.5 279 278.5 278 277.5 277 276.5 276 275.5 275 274.5 274 273.5 273 272.5 272 271.5 271 270.5 270 269.5 269 268.5 268 267.5 267 266.5 266 265.5 265 264.5 264 263.5 263 262.5 262 261.5 261 260.5 260 259.5 259 258.5 258 257.5 257 256.5 256 255.5 255 254.5 254 253.5 253 252.5 252 251.5 251 250.5 250 249.5 249 248.5 248 247.5 247 246.5 246 245.5 245 244.5 244 243.5 243 242.5 242 241.5 241 240.5 240 239.5 239 238.5 238 237.5 237 236.5 236 235.5 235 234.5 234 233.5 233 232.5 232 231.5 231 230.5 230 229.5 229 228.5 228 227.5 227 226.5 226 225.5 225 224.5 224 223.5 223 222.5 222 221.5 221 220.5 220 219.5 219 218.5 218 217.5 217 216.5 216 215.5 215 214.5 214 213.5 213 212.5 212 211.5 211 210.5 210 209.5 209 208.5 208 207.5 207 206.5 206 205.5 205 204.5 204 203.5 203 202.5 202 201.5 201 200.5 200 199.5 199 198.5 198 197.5 197 196.5 196 195.5 195 194.5 194 193.5 193 192.5 192 191.5 191 190.5 190 189.5 189 188.5 188 187.5 187 186.5 186 185.5 185 184.5 184 183.5 183 182.5 182 181.5 181 180.5 180 179.5 179 178.5 178 177.5 177 176.5 176 175.5 175 174.5 174 173.5 173 172.5 172 171.5 171 170.5 170 169.5 169 168.5 168 167.5 167 166.5 166 165.5 165 164.5 164 163.5 163 162.5 162 161.5 161 160.5 160 159.5 159 158.5 158 157.5 157 156.5 156 155.5 155 154.5 154 153.5 153 152.5 152 151.5 151 150.5 150 149.5 149 148.5 148 147.5 147 146.5 146 145.5 145 144.5 144 143.5 143 142.5 142 141.5 141 140.5 140 139.5 139 138.5 138 137.5 137 136.5 136 135.5 135 134.5 134 133.5 133 132.5 132 131.5 131 130.5 130 129.5 129 128.5 128 127.5 127 126.5 126 125.5 125 124.5 124 123.5 123 122.5 122 121.5 121 120.5 120 119.5 119 118.5 118 117.5 117 116.5 116 115.5 115 114.5 114 113.5 113 112.5 112 111.5 111 110.5 110 109.5 109 108.5 108 107.5 107 106.5 106 105.5 105 104.5 104 103.5 103 102.5 102 101.5 101 100.5 100 99.5 99 98.5 98 97.5 97 96.5 96 95.5 95 94.5 94 93.5 93 92.5 92 91.5 91 90.5 90 89.5 89 88.5 88 87.5 87 86.5 86 85.5 85 84.5 84 83.5 83 82.5 82 81.5 81 80.5 80 79.5 79 78.5 78 77.5 77 76.5 76 75.5 75 74.5 74 73.5 73 72.5 72 71.5 71 70.5 70 69.5 69 68.5 68 67.5 67 66.5 66 65.5 65 64.5 64 63.5 63 62.5 62 61.5 61 60.5 60 59.5 59 58.5 58 57.5 57 56.5 56 55.5 55 54.5 54 53.5 53 52.5 52 51.5 51 50.5 50 49.5 49 48.5 48 47.5 47 46.5 46 45.5 45 44.5 44 43.5 43 42.5 42 41.5 41 40.5 40 39.5 39 38.5 38 37.5 37 36.5 36 35.5 35 34.5 34 33.5 33 32.5 32 31.5 31 30.5 30 29.5 29 28.5 28 27.5 27 26.5 26 25.5 25 24.5 24 23.5 23 22.5 22 21.5 21 20.5 20 19.5 19 18.5 18 17.5 17 16.5 16 15.5 15 14.5 14 13.5 13 12.5 12 11.5 11 10.5 10 9.5 9 8.5 8 7.5 7 6.5 6 5.5 5 4.5 4 3.5 3 2.5 2 1.5 1 0.5 0 -0.5 -1 -1.5 -2 -2.5 -3 -3.5 -4 -4.5 -5 -5.5 -6 -6.5 -7 -7.5 -8 -8.5 -9 -9.5 -10

[Info 1]
Region Name=survey
Lens Mode=Transmission
Pass Energy=200
Number of Sweeps=2
Excitation Energy=700
Energy Scale=Binding
Acquisition Mode=Swept
Energy Unit=Kinetic
Center Energy=405
Low Energy=100
High Energy=710
Energy Step=0.5
Step Time=203
Detector First X-Channel=43
Detector Last X-Channel=659
Detector First Y-Channel=91
Detector Last Y-Channel=398
Number of Slices=1
File=Z:\XPS_data\2023\Mar2023\KIT\Cu-HHTP_0001.txt,.pxt,.ibw
Sequence=D:\old files\data2\data\Cu-HTTP_Mar_23.seq
Spectrum Name=Cu-HHTP__001
Instrument=R3000-6MS014
Location=Scienta
User=AN
Sample=Cu-HHTP
Comments=;
Date=2023-03-08
Time=11:17:15
Time per Spectrum Channel=18.676
DetectorMode=ADC
[Run Mode Information 1]



[Data 1]
 6.00000000000000E+0002  1.48950271606445E+0002
 5.99500000000000E+0002  1.46686569213867E+0002
 5.99000000000000E+0002  1.45659599304199E+0002
 5.98500000000000E+0002  1.46223091125488E+0002
 5.98000000000000E+0002  1.43434692382812E+0002
 5.97500000000000E+0002  1.39661903381348E+0002
 5.97000000000000E+0002  1.36733963012695E+0002
 5.96500000000000E+0002  1.35419921875000E+0002
 5.96000000000000E+0002  1.31778793334961E+0002
 5.95500000000000E+0002  1.28395011901855E+0002
 5.95000000000000E+0002  1.27328907012939E+0002
 5.94500000000000E+0002  1.20030357360840E+0002
 5.94000000000000E+0002  1.20520690917969E+0002
 5.93500000000000E+0002  1.18650836944580E+0002
 5.93000000000000E+0002  1.17143520355225E+0002
 5.92500000000000E+0002  1.11101413726807E+0002
 5.92000000000000E+0002  1.11086521148682E+0002
 5.91500000000000E+0002  1.11167446136475E+0002
 5.91000000000000E+0002  1.06197040557861E+0002
 5.90500000000000E+0002  1.05611545562744E+0002
 5.90000000000000E+0002  1.01173690795898E+0002
 5.89500000000000E+0002  1.01670368194580E+0002
 5.89000000000000E+0002  1.00190502166748E+0002
 5.88500000000000E+0002  9.85534400939941E+0001
 5.88000000000000E+0002  9.59353675842285E+0001
 5.87500000000000E+0002  9.77424163818359E+0001
 5.87000000000000E+0002  9.37260818481445E+0001
 5.86500000000000E+0002  9.17150268554687E+0001
 5.86000000000000E+0002  9.19185562133789E+0001
 5.85500000000000E+0002  9.17434730529785E+0001
 5.85000000000000E+0002  9.02578735351562E+0001
 5.84500000000000E+0002  8.85934486389160E+0001
 5.84000000000000E+0002  9.11013679504395E+0001
 5.83500000000000E+0002  8.74762954711914E+0001
 5.83000000000000E+0002  8.65905494689941E+0001
 5.82500000000000E+0002  8.57964859008789E+0001
 5.82000000000000E+0002  8.40010986328125E+0001
 5.81500000000000E+0002  8.42191963195801E+0001
 5.81000000000000E+0002  8.51627769470215E+0001
 5.80500000000000E+0002  8.19022636413574E+0001
 5.80000000000000E+0002  8.23069190979004E+0001
 5.79500000000000E+0002  8.14794883728027E+0001
 5.79000000000000E+0002  8.25516281127930E+0001
 5.78500000000000E+0002  8.29513130187988E+0001
 5.78000000000000E+0002  8.22153472900391E+0001
 5.77500000000000E+0002  8.27437210083008E+0001
 5.77000000000000E+0002  8.24897193908691E+0001
 5.76500000000000E+0002  8.13167076110840E+0001
 5.76000000000000E+0002  8.14890747070313E+0001
 5.75500000000000E+0002  8.30487937927246E+0001
 5.75000000000000E+0002  8.32748451232910E+0001
 5.74500000000000E+0002  8.14155921936035E+0001
 5.74000000000000E+0002  8.27639236450195E+0001
 5.73500000000000E+0002  8.28110275268555E+0001
 5.73000000000000E+0002  8.21763305664063E+0001
 5.72500000000000E+0002  8.23451843261719E+0001
 5.72000000000000E+0002  8.23016357421875E+0001
 5.71500000000000E+0002  8.31192817687988E+0001
 5.71000000000000E+0002  8.33593330383301E+0001
 5.70500000000000E+0002  8.38722953796387E+0001
 5.70000000000000E+0002  8.27822380065918E+0001
 5.69500000000000E+0002  8.32493782043457E+0001
 5.69000000000000E+0002  8.66991539001465E+0001
 5.68500000000000E+0002  8.58532905578613E+0001
 5.68000000000000E+0002  8.80776519775391E+0001
 5.67500000000000E+0002  8.75832290649414E+0001
 5.67000000000000E+0002  8.83690071105957E+0001
 5.66500000000000E+0002  8.72888870239258E+0001
 5.66000000000000E+0002  8.91850204467773E+0001
 5.65500000000000E+0002  9.00019989013672E+0001
 5.65000000000000E+0002  8.81981353759766E+0001
 5.64500000000000E+0002  8.91081161499023E+0001
 5.64000000000000E+0002  9.09668121337891E+0001
 5.63500000000000E+0002  9.38907775878906E+0001
 5.63000000000000E+0002  9.41914634704590E+0001
 5.62500000000000E+0002  9.12797927856445E+0001
 5.62000000000000E+0002  9.68279876708984E+0001
 5.61500000000000E+0002  9.78301582336426E+0001
 5.61000000000000E+0002  9.90573997497559E+0001
 5.60500000000000E+0002  9.92463951110840E+0001
 5.60000000000000E+0002  9.84151878356934E+0001
 5.59500000000000E+0002  1.00262989044189E+0002
 5.59000000000000E+0002  1.02493511199951E+0002
 5.58500000000000E+0002  1.03049476623535E+0002
 5.58000000000000E+0002  1.01268932342529E+0002
 5.57500000000000E+0002  1.03440940856934E+0002
 5.57000000000000E+0002  1.03934616088867E+0002
 5.56500000000000E+0002  1.05192546844482E+0002
 5.56000000000000E+0002  1.06697414398193E+0002
 5.55500000000000E+0002  1.04702697753906E+0002
 5.55000000000000E+0002  1.05440227508545E+0002
 5.54500000000000E+0002  1.07197303771973E+0002
 5.54000000000000E+0002  1.09207126617432E+0002
 5.53500000000000E+0002  1.08665248870850E+0002
 5.53000000000000E+0002  1.07442947387695E+0002
 5.52500000000000E+0002  1.07726440429688E+0002
 5.52000000000000E+0002  1.05502258300781E+0002
 5.51500000000000E+0002  1.08963798522949E+0002
 5.51000000000000E+0002  1.07536819458008E+0002
 5.50500000000000E+0002  1.09741039276123E+0002
 5.50000000000000E+0002  1.09118022918701E+0002
 5.49500000000000E+0002  1.07409542083740E+0002
 5.49000000000000E+0002  1.09035861968994E+0002
 5.48500000000000E+0002  1.08994583129883E+0002
 5.48000000000000E+0002  1.07447723388672E+0002
 5.47500000000000E+0002  1.05992946624756E+0002
 5.47000000000000E+0002  1.09397190093994E+0002
 5.46500000000000E+0002  1.07236999511719E+0002
 5.46000000000000E+0002  1.07760520935059E+0002
 5.45500000000000E+0002  1.05333286285400E+0002
 5.45000000000000E+0002  1.03155452728271E+0002
 5.44500000000000E+0002  1.04873104095459E+0002
 5.44000000000000E+0002  1.03738834381104E+0002
 5.43500000000000E+0002  1.03361263275146E+0002
 5.43000000000000E+0002  1.02224819183350E+0002
 5.42500000000000E+0002  1.01437461853027E+0002
 5.42000000000000E+0002  1.00310710906982E+0002
 5.41500000000000E+0002  1.00726425170898E+0002
 5.41000000000000E+0002  9.96184959411621E+0001
 5.40500000000000E+0002  1.00406105041504E+0002
 5.40000000000000E+0002  1.00702919006348E+0002
 5.39500000000000E+0002  9.78322677612305E+0001
 5.39000000000000E+0002  9.94811668395996E+0001
 5.38500000000000E+0002  9.99323921203613E+0001
 5.38000000000000E+0002  1.00557624816895E+0002
 5.37500000000000E+0002  1.02047302246094E+0002
 5.37000000000000E+0002  1.02677410125732E+0002
 5.36500000000000E+0002  1.07475513458252E+0002
 5.36000000000000E+0002  1.10265720367432E+0002
 5.35500000000000E+0002  1.13301509857178E+0002
 5.35000000000000E+0002  1.21853385925293E+0002
 5.34500000000000E+0002  1.37657173156738E+0002
 5.34000000000000E+0002  1.81933044433594E+0002
 5.33500000000000E+0002  2.33711166381836E+0002
 5.33000000000000E+0002  2.81121078491211E+0002
 5.32500000000000E+0002  2.96342559814453E+0002
 5.32000000000000E+0002  2.82204696655273E+0002
 5.31500000000000E+0002  2.51548690795898E+0002
 5.31000000000000E+0002  2.08545692443848E+0002
 5.30500000000000E+0002  1.62426879882813E+0002
 5.30000000000000E+0002  1.25063396453857E+0002
 5.29500000000000E+0002  1.01712196350098E+0002
 5.29000000000000E+0002  9.19379997253418E+0001
 5.28500000000000E+0002  9.10254821777344E+0001
 5.28000000000000E+0002  9.01171531677246E+0001
 5.27500000000000E+0002  8.83879394531250E+0001
 5.27000000000000E+0002  8.88745346069336E+0001
 5.26500000000000E+0002  8.97131576538086E+0001
 5.26000000000000E+0002  8.86392097473145E+0001
 5.25500000000000E+0002  9.05680465698242E+0001
 5.25000000000000E+0002  8.85623321533203E+0001
 5.24500000000000E+0002  9.05229301452637E+0001
 5.24000000000000E+0002  9.04483528137207E+0001
 5.23500000000000E+0002  9.04674453735352E+0001
 5.23000000000000E+0002  9.09536094665527E+0001
 5.22500000000000E+0002  9.03535346984863E+0001
 5.22000000000000E+0002  9.14326400756836E+0001
 5.21500000000000E+0002  9.50028877258301E+0001
 5.21000000000000E+0002  9.30704803466797E+0001
 5.20500000000000E+0002  9.35171356201172E+0001
 5.20000000000000E+0002  9.42456932067871E+0001
 5.19500000000000E+0002  9.37218742370606E+0001
 5.19000000000000E+0002  9.54945831298828E+0001
 5.18500000000000E+0002  9.59999694824219E+0001
 5.18000000000000E+0002  9.42729148864746E+0001
 5.17500000000000E+0002  9.41944847106934E+0001
 5.17000000000000E+0002  9.38641586303711E+0001
 5.16500000000000E+0002  9.65241355895996E+0001
 5.16000000000000E+0002  9.80312461853027E+0001
 5.15500000000000E+0002  9.62618713378906E+0001
 5.15000000000000E+0002  9.57961387634277E+0001
 5.14500000000000E+0002  9.38734931945801E+0001
 5.14000000000000E+0002  9.92455139160156E+0001
 5.13500000000000E+0002  9.77440567016601E+0001
 5.13000000000000E+0002  9.57302665710449E+0001
 5.12500000000000E+0002  9.59215583801270E+0001
 5.12000000000000E+0002  9.69770889282227E+0001
 5.11500000000000E+0002  9.58092422485352E+0001
 5.11000000000000E+0002  9.64347152709961E+0001
 5.10500000000000E+0002  9.60851669311523E+0001
 5.10000000000000E+0002  9.80908927917480E+0001
 5.09500000000000E+0002  9.49357147216797E+0001
 5.09000000000000E+0002  9.72775459289551E+0001
 5.08500000000000E+0002  9.44458198547363E+0001
 5.08000000000000E+0002  9.53749847412109E+0001
 5.07500000000000E+0002  9.55913124084473E+0001
 5.07000000000000E+0002  9.65581703186035E+0001
 5.06500000000000E+0002  9.54132347106934E+0001
 5.06000000000000E+0002  9.42025642395020E+0001
 5.05500000000000E+0002  9.30243797302246E+0001
 5.05000000000000E+0002  9.19984016418457E+0001
 5.04500000000000E+0002  9.09238929748535E+0001
 5.04000000000000E+0002  8.98085327148437E+0001
 5.03500000000000E+0002  8.98534584045410E+0001
 5.03000000000000E+0002  9.04112510681152E+0001
 5.02500000000000E+0002  8.79383506774902E+0001
 5.02000000000000E+0002  8.63287658691406E+0001
 5.01500000000000E+0002  8.69448585510254E+0001
 5.01000000000000E+0002  8.61740608215332E+0001
 5.00500000000000E+0002  8.71774787902832E+0001
 5.00000000000000E+0002  8.68535194396973E+0001
 4.99500000000000E+0002  8.47163391113281E+0001
 4.99000000000000E+0002  8.40545349121094E+0001
 4.98500000000000E+0002  8.34012222290039E+0001
 4.98000000000000E+0002  8.29388008117676E+0001
 4.97500000000000E+0002  8.16680145263672E+0001
 4.97000000000000E+0002  8.21729660034180E+0001
 4.96500000000000E+0002  8.21921005249023E+0001
 4.96000000000000E+0002  8.19434814453125E+0001
 4.95500000000000E+0002  8.15409927368164E+0001
 4.95000000000000E+0002  7.92167816162109E+0001
 4.94500000000000E+0002  7.94769363403320E+0001
 4.94000000000000E+0002  7.60099983215332E+0001
 4.93500000000000E+0002  7.90293693542481E+0001
 4.93000000000000E+0002  7.75933570861816E+0001
 4.92500000000000E+0002  7.69815521240234E+0001
 4.92000000000000E+0002  7.69983406066895E+0001
 4.91500000000000E+0002  7.68179283142090E+0001
 4.91000000000000E+0002  7.69522514343262E+0001
 4.90500000000000E+0002  7.73333511352539E+0001
 4.90000000000000E+0002  7.43311119079590E+0001
 4.89500000000000E+0002  7.42429046630859E+0001
 4.89000000000000E+0002  7.56436538696289E+0001
 4.88500000000000E+0002  7.43200988769531E+0001
 4.88000000000000E+0002  7.47456092834473E+0001
 4.87500000000000E+0002  7.47709465026855E+0001
 4.87000000000000E+0002  7.27774429321289E+0001
 4.86500000000000E+0002  7.31133270263672E+0001
 4.86000000000000E+0002  7.29941940307617E+0001
 4.85500000000000E+0002  7.25070953369141E+0001
 4.85000000000000E+0002  7.16386451721191E+0001
 4.84500000000000E+0002  7.08653602600098E+0001
 4.84000000000000E+0002  7.10819053649902E+0001
 4.83500000000000E+0002  7.11742744445801E+0001
 4.83000000000000E+0002  6.98895530700684E+0001
 4.82500000000000E+0002  7.14092559814453E+0001
 4.82000000000000E+0002  7.01030731201172E+0001
 4.81500000000000E+0002  7.22345619201660E+0001
 4.81000000000000E+0002  7.05105400085449E+0001
 4.80500000000000E+0002  7.01576423645020E+0001
 4.80000000000000E+0002  7.02458915710449E+0001
 4.79500000000000E+0002  6.81121177673340E+0001
 4.79000000000000E+0002  6.97875480651855E+0001
 4.78500000000000E+0002  6.98571166992188E+0001
 4.78000000000000E+0002  7.03482742309570E+0001
 4.77500000000000E+0002  6.92317008972168E+0001
 4.77000000000000E+0002  6.57197380065918E+0001
 4.76500000000000E+0002  6.67924346923828E+0001
 4.76000000000000E+0002  6.96595726013184E+0001
 4.75500000000000E+0002  6.86304626464844E+0001
 4.75000000000000E+0002  6.83356018066406E+0001
 4.74500000000000E+0002  6.97104759216309E+0001
 4.74000000000000E+0002  6.78478431701660E+0001
 4.73500000000000E+0002  6.83897132873535E+0001
 4.73000000000000E+0002  6.79628829956055E+0001
 4.72500000000000E+0002  6.84736518859863E+0001
 4.72000000000000E+0002  6.79518356323242E+0001
 4.71500000000000E+0002  6.68840026855469E+0001
 4.71000000000000E+0002  6.71999912261963E+0001
 4.70500000000000E+0002  6.69671859741211E+0001
 4.70000000000000E+0002  6.79696998596191E+0001
 4.69500000000000E+0002  6.75125846862793E+0001
 4.69000000000000E+0002  6.59312820434570E+0001
 4.68500000000000E+0002  6.58889732360840E+0001
 4.68000000000000E+0002  6.66145095825195E+0001
 4.67500000000000E+0002  6.83769493103027E+0001
 4.67000000000000E+0002  6.87092170715332E+0001
 4.66500000000000E+0002  6.88650093078613E+0001
 4.66000000000000E+0002  6.70188064575195E+0001
 4.65500000000000E+0002  6.61863956451416E+0001
 4.65000000000000E+0002  6.76402435302734E+0001
 4.64500000000000E+0002  6.56505203247070E+0001
 4.64000000000000E+0002  6.82239189147949E+0001
 4.63500000000000E+0002  6.73448600769043E+0001
 4.63000000000000E+0002  6.86470680236816E+0001
 4.62500000000000E+0002  6.58892021179199E+0001
 4.62000000000000E+0002  6.77060050964355E+0001
 4.61500000000000E+0002  6.70938911437988E+0001
 4.61000000000000E+0002  6.84913711547852E+0001
 4.60500000000000E+0002  6.88411521911621E+0001
 4.60000000000000E+0002  6.91988525390625E+0001
 4.59500000000000E+0002  6.83922805786133E+0001
 4.59000000000000E+0002  6.72058372497559E+0001
 4.58500000000000E+0002  6.83469238281250E+0001
 4.58000000000000E+0002  7.15486221313477E+0001
 4.57500000000000E+0002  6.98348464965820E+0001
 4.57000000000000E+0002  7.18026657104492E+0001
 4.56500000000000E+0002  7.02224807739258E+0001
 4.56000000000000E+0002  6.99121932983398E+0001
 4.55500000000000E+0002  7.02969932556152E+0001
 4.55000000000000E+0002  7.05307350158691E+0001
 4.54500000000000E+0002  7.03970031738281E+0001
 4.54000000000000E+0002  7.11351776123047E+0001
 4.53500000000000E+0002  6.94742507934570E+0001
 4.53000000000000E+0002  6.97317619323730E+0001
 4.52500000000000E+0002  6.97534446716309E+0001
 4.52000000000000E+0002  7.22041664123535E+0001
 4.51500000000000E+0002  7.14615554809570E+0001
 4.51000000000000E+0002  7.12506256103516E+0001
 4.50500000000000E+0002  7.19020118713379E+0001
 4.50000000000000E+0002  7.09900169372559E+0001
 4.49500000000000E+0002  7.44010276794434E+0001
 4.49000000000000E+0002  7.23025054931641E+0001
 4.48500000000000E+0002  6.93833389282227E+0001
 4.48000000000000E+0002  7.03970794677734E+0001
 4.47500000000000E+0002  7.16014518737793E+0001
 4.47000000000000E+0002  7.27472496032715E+0001
 4.46500000000000E+0002  7.25844230651855E+0001
 4.46000000000000E+0002  7.14899215698242E+0001
 4.45500000000000E+0002  7.22363777160645E+0001
 4.45000000000000E+0002  7.39607887268066E+0001
 4.44500000000000E+0002  7.21980514526367E+0001
 4.44000000000000E+0002  7.46189193725586E+0001
 4.43500000000000E+0002  7.27872085571289E+0001
 4.43000000000000E+0002  7.46328277587891E+0001
 4.42500000000000E+0002  7.36170501708984E+0001
 4.42000000000000E+0002  7.55938835144043E+0001
 4.41500000000000E+0002  7.44122276306152E+0001
 4.41000000000000E+0002  7.89900398254394E+0001
 4.40500000000000E+0002  7.68021202087402E+0001
 4.40000000000000E+0002  7.74100761413574E+0001
 4.39500000000000E+0002  7.92998962402344E+0001
 4.39000000000000E+0002  7.82835235595703E+0001
 4.38500000000000E+0002  7.87067642211914E+0001
 4.38000000000000E+0002  7.89642028808594E+0001
 4.37500000000000E+0002  8.01049499511719E+0001
 4.37000000000000E+0002  8.06985626220703E+0001
 4.36500000000000E+0002  7.98078994750977E+0001
 4.36000000000000E+0002  8.15729980468750E+0001
 4.35500000000000E+0002  8.03822402954102E+0001
 4.35000000000000E+0002  8.06849403381348E+0001
 4.34500000000000E+0002  8.01875457763672E+0001
 4.34000000000000E+0002  8.03953704833984E+0001
 4.33500000000000E+0002  8.09092826843262E+0001
 4.33000000000000E+0002  8.11169204711914E+0001
 4.32500000000000E+0002  8.21183967590332E+0001
 4.32000000000000E+0002  7.99291610717773E+0001
 4.31500000000000E+0002  7.86272125244141E+0001
 4.31000000000000E+0002  7.85914497375488E+0001
 4.30500000000000E+0002  7.95476570129395E+0001
 4.30000000000000E+0002  7.58978691101074E+0001
 4.29500000000000E+0002  7.68221549987793E+0001
 4.29000000000000E+0002  7.76786918640137E+0001
 4.28500000000000E+0002  7.60591201782227E+0001
 4.28000000000000E+0002  7.48109283447266E+0001
 4.27500000000000E+0002  7.50085792541504E+0001
 4.27000000000000E+0002  7.37055358886719E+0001
 4.26500000000000E+0002  7.35016975402832E+0001
 4.26000000000000E+0002  7.17358207702637E+0001
 4.25500000000000E+0002  7.12775878906250E+0001
 4.25000000000000E+0002  7.05918159484863E+0001
 4.24500000000000E+0002  6.81712074279785E+0001
 4.24000000000000E+0002  6.72670173645020E+0001
 4.23500000000000E+0002  6.68690719604492E+0001
 4.23000000000000E+0002  6.43544006347656E+0001
 4.22500000000000E+0002  6.47093658447266E+0001
 4.22000000000000E+0002  6.55687179565430E+0001
 4.21500000000000E+0002  6.31872882843018E+0001
 4.21000000000000E+0002  6.19876899719238E+0001
 4.20500000000000E+0002  6.08486785888672E+0001
 4.20000000000000E+0002  5.86613616943359E+0001
 4.19500000000000E+0002  5.95172176361084E+0001
 4.19000000000000E+0002  5.94523067474365E+0001
 4.18500000000000E+0002  5.76266078948975E+0001
 4.18000000000000E+0002  5.77142028808594E+0001
 4.17500000000000E+0002  5.84625148773193E+0001
 4.17000000000000E+0002  5.65995769500732E+0001
 4.16500000000000E+0002  5.50217685699463E+0001
 4.16000000000000E+0002  5.54702644348145E+0001
 4.15500000000000E+0002  5.56746997833252E+0001
 4.15000000000000E+0002  5.45699710845947E+0001
 4.14500000000000E+0002  5.49449577331543E+0001
 4.14000000000000E+0002  5.46613063812256E+0001
 4.13500000000000E+0002  5.54433765411377E+0001
 4.13000000000000E+0002  5.44885654449463E+0001
 4.12500000000000E+0002  5.44518337249756E+0001
 4.12000000000000E+0002  5.46080303192139E+0001
 4.11500000000000E+0002  5.45109252929687E+0001
 4.11000000000000E+0002  5.39836082458496E+0001
 4.10500000000000E+0002  5.35510673522949E+0001
 4.10000000000000E+0002  5.38124847412109E+0001
 4.09500000000000E+0002  5.31888542175293E+0001
 4.09000000000000E+0002  5.31874885559082E+0001
 4.08500000000000E+0002  5.37647666931152E+0001
 4.08000000000000E+0002  5.52451248168945E+0001
 4.07500000000000E+0002  5.45426979064941E+0001
 4.07000000000000E+0002  5.44294452667236E+0001
 4.06500000000000E+0002  5.37988739013672E+0001
 4.06000000000000E+0002  5.46871910095215E+0001
 4.05500000000000E+0002  5.55448722839355E+0001
 4.05000000000000E+0002  5.65072593688965E+0001
 4.04500000000000E+0002  5.38116054534912E+0001
 4.04000000000000E+0002  5.37689247131348E+0001
 4.03500000000000E+0002  5.49389114379883E+0001
 4.03000000000000E+0002  5.56753692626953E+0001
 4.02500000000000E+0002  5.51384353637695E+0001
 4.02000000000000E+0002  5.68990058898926E+0001
 4.01500000000000E+0002  5.88551082611084E+0001
 4.01000000000000E+0002  6.00656261444092E+0001
 4.00500000000000E+0002  6.29987945556641E+0001
 4.00000000000000E+0002  6.46103897094727E+0001
 3.99500000000000E+0002  6.55172805786133E+0001
 3.99000000000000E+0002  6.05841026306152E+0001
 3.98500000000000E+0002  5.66389961242676E+0001
 3.98000000000000E+0002  5.56700553894043E+0001
 3.97500000000000E+0002  5.59636325836182E+0001
 3.97000000000000E+0002  5.65113334655762E+0001
 3.96500000000000E+0002  5.39544029235840E+0001
 3.96000000000000E+0002  5.34869327545166E+0001
 3.95500000000000E+0002  5.56646823883057E+0001
 3.95000000000000E+0002  5.53948631286621E+0001
 3.94500000000000E+0002  5.63177547454834E+0001
 3.94000000000000E+0002  5.43173046112061E+0001
 3.93500000000000E+0002  5.52200183868408E+0001
 3.93000000000000E+0002  5.54714393615723E+0001
 3.92500000000000E+0002  5.48923301696777E+0001
 3.92000000000000E+0002  5.53523483276367E+0001
 3.91500000000000E+0002  5.40010547637939E+0001
 3.91000000000000E+0002  5.40676040649414E+0001
 3.90500000000000E+0002  5.63328990936279E+0001
 3.90000000000000E+0002  5.60896778106689E+0001
 3.89500000000000E+0002  5.64613857269287E+0001
 3.89000000000000E+0002  5.56739215850830E+0001
 3.88500000000000E+0002  5.46818885803223E+0001
 3.88000000000000E+0002  5.50425510406494E+0001
 3.87500000000000E+0002  5.46371955871582E+0001
 3.87000000000000E+0002  5.42833385467529E+0001
 3.86500000000000E+0002  5.57413158416748E+0001
 3.86000000000000E+0002  5.55511798858643E+0001
 3.85500000000000E+0002  5.58091297149658E+0001
 3.85000000000000E+0002  5.55661373138428E+0001
 3.84500000000000E+0002  5.56379108428955E+0001
 3.84000000000000E+0002  5.61628112792969E+0001
 3.83500000000000E+0002  5.63583526611328E+0001
 3.83000000000000E+0002  5.60453128814697E+0001
 3.82500000000000E+0002  5.60778865814209E+0001
 3.82000000000000E+0002  5.70784149169922E+0001
 3.81500000000000E+0002  5.74179897308350E+0001
 3.81000000000000E+0002  5.60954589843750E+0001
 3.80500000000000E+0002  5.55247097015381E+0001
 3.80000000000000E+0002  5.77568416595459E+0001
 3.79500000000000E+0002  5.72426509857178E+0001
 3.79000000000000E+0002  5.81965522766113E+0001
 3.78500000000000E+0002  5.83287601470947E+0001
 3.78000000000000E+0002  5.68546199798584E+0001
 3.77500000000000E+0002  5.75833683013916E+0001
 3.77000000000000E+0002  5.74245605468750E+0001
 3.76500000000000E+0002  5.61240634918213E+0001
 3.76000000000000E+0002  5.76155185699463E+0001
 3.75500000000000E+0002  5.70202999114990E+0001
 3.75000000000000E+0002  5.78236522674561E+0001
 3.74500000000000E+0002  5.69662246704102E+0001
 3.74000000000000E+0002  5.73892230987549E+0001
 3.73500000000000E+0002  5.78596935272217E+0001
 3.73000000000000E+0002  5.95034027099609E+0001
 3.72500000000000E+0002  5.67161560058594E+0001
 3.72000000000000E+0002  5.75793952941895E+0001
 3.71500000000000E+0002  5.77650737762451E+0001
 3.71000000000000E+0002  5.62327365875244E+0001
 3.70500000000000E+0002  5.69367179870605E+0001
 3.70000000000000E+0002  5.66867427825928E+0001
 3.69500000000000E+0002  5.77566432952881E+0001
 3.69000000000000E+0002  5.80448684692383E+0001
 3.68500000000000E+0002  5.79547119140625E+0001
 3.68000000000000E+0002  5.67330074310303E+0001
 3.67500000000000E+0002  5.84220275878906E+0001
 3.67000000000000E+0002  5.71617527008057E+0001
 3.66500000000000E+0002  5.92097740173340E+0001
 3.66000000000000E+0002  6.05121917724609E+0001
 3.65500000000000E+0002  5.91828384399414E+0001
 3.65000000000000E+0002  5.71706581115723E+0001
 3.64500000000000E+0002  5.85394306182861E+0001
 3.64000000000000E+0002  5.76310157775879E+0001
 3.63500000000000E+0002  5.70557403564453E+0001
 3.63000000000000E+0002  5.79515037536621E+0001
 3.62500000000000E+0002  5.68444614410400E+0001
 3.62000000000000E+0002  5.92499008178711E+0001
 3.61500000000000E+0002  5.88672275543213E+0001
 3.61000000000000E+0002  5.79500503540039E+0001
 3.60500000000000E+0002  5.76110115051270E+0001
 3.60000000000000E+0002  5.73243694305420E+0001
 3.59500000000000E+0002  5.91826229095459E+0001
 3.59000000000000E+0002  5.84634246826172E+0001
 3.58500000000000E+0002  5.85408020019531E+0001
 3.58000000000000E+0002  5.92651920318604E+0001
 3.57500000000000E+0002  5.90213088989258E+0001
 3.57000000000000E+0002  5.82552165985107E+0001
 3.56500000000000E+0002  5.84406967163086E+0001
 3.56000000000000E+0002  6.03627471923828E+0001
 3.55500000000000E+0002  5.81768932342529E+0001
 3.55000000000000E+0002  5.90159988403320E+0001
 3.54500000000000E+0002  5.92603569030762E+0001
 3.54000000000000E+0002  5.90156021118164E+0001
 3.53500000000000E+0002  5.84534034729004E+0001
 3.53000000000000E+0002  5.93059177398682E+0001
 3.52500000000000E+0002  6.00907344818115E+0001
 3.52000000000000E+0002  5.87102432250977E+0001
 3.51500000000000E+0002  6.07742424011230E+0001
 3.51000000000000E+0002  6.12959175109863E+0001
 3.50500000000000E+0002  6.01402492523193E+0001
 3.50000000000000E+0002  5.98426532745361E+0001
 3.49500000000000E+0002  5.97392997741699E+0001
 3.49000000000000E+0002  5.89638137817383E+0001
 3.48500000000000E+0002  6.03294811248779E+0001
 3.48000000000000E+0002  6.01841487884521E+0001
 3.47500000000000E+0002  5.83085269927978E+0001
 3.47000000000000E+0002  6.17345867156982E+0001
 3.46500000000000E+0002  6.08748149871826E+0001
 3.46000000000000E+0002  5.88682365417480E+0001
 3.45500000000000E+0002  5.98616390228271E+0001
 3.45000000000000E+0002  5.87704029083252E+0001
 3.44500000000000E+0002  5.96593761444092E+0001
 3.44000000000000E+0002  6.08518581390381E+0001
 3.43500000000000E+0002  5.97810420989990E+0001
 3.43000000000000E+0002  6.01809558868408E+0001
 3.42500000000000E+0002  5.87671890258789E+0001
 3.42000000000000E+0002  5.88315429687500E+0001
 3.41500000000000E+0002  5.98903179168701E+0001
 3.41000000000000E+0002  6.13296146392822E+0001
 3.40500000000000E+0002  5.97140312194824E+0001
 3.40000000000000E+0002  5.92772521972656E+0001
 3.39500000000000E+0002  5.86860485076904E+0001
 3.39000000000000E+0002  6.05923366546631E+0001
 3.38500000000000E+0002  6.08765869140625E+0001
 3.38000000000000E+0002  6.13363857269287E+0001
 3.37500000000000E+0002  5.97176113128662E+0001
 3.37000000000000E+0002  5.96906604766846E+0001
 3.36500000000000E+0002  6.09090175628662E+0001
 3.36000000000000E+0002  6.01109771728516E+0001
 3.35500000000000E+0002  6.01406631469726E+0001
 3.35000000000000E+0002  6.20550518035889E+0001
 3.34500000000000E+0002  6.11687812805176E+0001
 3.34000000000000E+0002  5.91184539794922E+0001
 3.33500000000000E+0002  6.05833969116211E+0001
 3.33000000000000E+0002  6.22361869812012E+0001
 3.32500000000000E+0002  6.01802654266357E+0001
 3.32000000000000E+0002  6.07006435394287E+0001
 3.31500000000000E+0002  6.05567817687988E+0001
 3.31000000000000E+0002  6.14277057647705E+0001
 3.30500000000000E+0002  6.07345905303955E+0001
 3.30000000000000E+0002  5.82998142242432E+0001
 3.29500000000000E+0002  6.05214557647705E+0001
 3.29000000000000E+0002  5.90077266693115E+0001
 3.28500000000000E+0002  6.18228130340576E+0001
 3.28000000000000E+0002  6.12587852478027E+0001
 3.27500000000000E+0002  6.06756744384766E+0001
 3.27000000000000E+0002  6.05592517852783E+0001
 3.26500000000000E+0002  6.24389247894287E+0001
 3.26000000000000E+0002  6.23844871520996E+0001
 3.25500000000000E+0002  6.13755836486816E+0001
 3.25000000000000E+0002  6.02029609680176E+0001
 3.24500000000000E+0002  6.05947914123535E+0001
 3.24000000000000E+0002  5.96167469024658E+0001
 3.23500000000000E+0002  6.18956966400147E+0001
 3.23000000000000E+0002  6.08126659393311E+0001
 3.22500000000000E+0002  6.14531917572022E+0001
 3.22000000000000E+0002  6.08732433319092E+0001
 3.21500000000000E+0002  6.02242813110351E+0001
 3.21000000000000E+0002  5.97066116333008E+0001
 3.20500000000000E+0002  6.14004154205322E+0001
 3.20000000000000E+0002  6.15579967498779E+0001
 3.19500000000000E+0002  6.04452476501465E+0001
 3.19000000000000E+0002  6.07721099853516E+0001
 3.18500000000000E+0002  6.10991172790527E+0001
 3.18000000000000E+0002  6.16586341857910E+0001
 3.17500000000000E+0002  6.15291328430176E+0001
 3.17000000000000E+0002  6.10908794403076E+0001
 3.16500000000000E+0002  6.05029582977295E+0001
 3.16000000000000E+0002  6.27456684112549E+0001
 3.15500000000000E+0002  5.93994655609131E+0001
 3.15000000000000E+0002  6.12103424072266E+0001
 3.14500000000000E+0002  6.18212985992432E+0001
 3.14000000000000E+0002  5.98176898956299E+0001
 3.13500000000000E+0002  6.08178043365479E+0001
 3.13000000000000E+0002  6.08825397491455E+0001
 3.12500000000000E+0002  6.25256900787353E+0001
 3.12000000000000E+0002  6.01394748687744E+0001
 3.11500000000000E+0002  6.21374683380127E+0001
 3.11000000000000E+0002  5.97748222351074E+0001
 3.10500000000000E+0002  5.97748298645020E+0001
 3.10000000000000E+0002  6.02485942840576E+0001
 3.09500000000000E+0002  6.01400051116943E+0001
 3.09000000000000E+0002  5.96513099670410E+0001
 3.08500000000000E+0002  5.79805316925049E+0001
 3.08000000000000E+0002  5.77314338684082E+0001
 3.07500000000000E+0002  5.83270511627197E+0001
 3.07000000000000E+0002  5.74912509918213E+0001
 3.06500000000000E+0002  5.76411132812500E+0001
 3.06000000000000E+0002  5.66930122375488E+0001
 3.05500000000000E+0002  5.52868747711182E+0001
 3.05000000000000E+0002  5.53259658813477E+0001
 3.04500000000000E+0002  5.61189250946045E+0001
 3.04000000000000E+0002  5.52041015625000E+0001
 3.03500000000000E+0002  5.46367797851562E+0001
 3.03000000000000E+0002  5.53546676635742E+0001
 3.02500000000000E+0002  5.19551029205322E+0001
 3.02000000000000E+0002  5.08801574707031E+0001
 3.01500000000000E+0002  5.26108016967774E+0001
 3.01000000000000E+0002  4.96853122711182E+0001
 3.00500000000000E+0002  5.07256202697754E+0001
 3.00000000000000E+0002  4.88346576690674E+0001
 2.99500000000000E+0002  4.82361450195313E+0001
 2.99000000000000E+0002  4.76771907806396E+0001
 2.98500000000000E+0002  4.70767593383789E+0001
 2.98000000000000E+0002  4.62592220306396E+0001
 2.97500000000000E+0002  4.60754318237305E+0001
 2.97000000000000E+0002  4.56091022491455E+0001
 2.96500000000000E+0002  4.46671409606934E+0001
 2.96000000000000E+0002  4.49704761505127E+0001
 2.95500000000000E+0002  4.26463108062744E+0001
 2.95000000000000E+0002  4.39739151000977E+0001
 2.94500000000000E+0002  4.34033184051514E+0001
 2.94000000000000E+0002  4.44680004119873E+0001
 2.93500000000000E+0002  4.67723369598389E+0001
 2.93000000000000E+0002  4.65382404327393E+0001
 2.92500000000000E+0002  4.72224216461182E+0001
 2.92000000000000E+0002  4.61807136535645E+0001
 2.91500000000000E+0002  4.77298202514648E+0001
 2.91000000000000E+0002  4.93797302246094E+0001
 2.90500000000000E+0002  4.95133876800537E+0001
 2.90000000000000E+0002  5.39218940734863E+0001
 2.89500000000000E+0002  5.87978744506836E+0001
 2.89000000000000E+0002  6.75171508789063E+0001
 2.88500000000000E+0002  7.76501617431641E+0001
 2.88000000000000E+0002  8.44399909973145E+0001
 2.87500000000000E+0002  8.38197860717773E+0001
 2.87000000000000E+0002  8.52310218811035E+0001
 2.86500000000000E+0002  9.92827415466309E+0001
 2.86000000000000E+0002  1.17735404968262E+0002
 2.85500000000000E+0002  1.52070693969727E+0002
 2.85000000000000E+0002  1.97780761718750E+0002
 2.84500000000000E+0002  2.20764839172363E+0002
 2.84000000000000E+0002  1.87983459472656E+0002
 2.83500000000000E+0002  1.28297264099121E+0002
 2.83000000000000E+0002  7.48540267944336E+0001
 2.82500000000000E+0002  4.70413703918457E+0001
 2.82000000000000E+0002  3.66308631896973E+0001
 2.81500000000000E+0002  3.20330066680908E+0001
 2.81000000000000E+0002  3.04219322204590E+0001
 2.80500000000000E+0002  2.85042238235474E+0001
 2.80000000000000E+0002  2.90536308288574E+0001
 2.79500000000000E+0002  2.91564769744873E+0001
 2.79000000000000E+0002  2.84419498443604E+0001
 2.78500000000000E+0002  2.79458780288696E+0001
 2.78000000000000E+0002  2.80152187347412E+0001
 2.77500000000000E+0002  2.77728109359741E+0001
 2.77000000000000E+0002  2.86324081420898E+0001
 2.76500000000000E+0002  2.79593992233276E+0001
 2.76000000000000E+0002  2.85151920318604E+0001
 2.75500000000000E+0002  2.80038805007935E+0001
 2.75000000000000E+0002  2.70359821319580E+0001
 2.74500000000000E+0002  2.73979425430298E+0001
 2.74000000000000E+0002  2.72874546051025E+0001
 2.73500000000000E+0002  2.85521039962769E+0001
 2.73000000000000E+0002  2.73822803497314E+0001
 2.72500000000000E+0002  2.68879880905151E+0001
 2.72000000000000E+0002  2.78856916427612E+0001
 2.71500000000000E+0002  2.77906808853149E+0001
 2.71000000000000E+0002  2.82013759613037E+0001
 2.70500000000000E+0002  2.82625198364258E+0001
 2.70000000000000E+0002  2.76280937194824E+0001
 2.69500000000000E+0002  2.74785737991333E+0001
 2.69000000000000E+0002  2.86288652420044E+0001
 2.68500000000000E+0002  2.81340932846069E+0001
 2.68000000000000E+0002  2.85478734970093E+0001
 2.67500000000000E+0002  2.80272750854492E+0001
 2.67000000000000E+0002  2.75416097640991E+0001
 2.66500000000000E+0002  2.79181537628174E+0001
 2.66000000000000E+0002  2.85395822525024E+0001
 2.65500000000000E+0002  2.77787141799927E+0001
 2.65000000000000E+0002  2.66690406799316E+0001
 2.64500000000000E+0002  2.85156068801880E+0001
 2.64000000000000E+0002  2.73738117218018E+0001
 2.63500000000000E+0002  2.92990932464600E+0001
 2.63000000000000E+0002  2.69474487304687E+0001
 2.62500000000000E+0002  2.61967630386353E+0001
 2.62000000000000E+0002  2.71243391036987E+0001
 2.61500000000000E+0002  2.68139123916626E+0001
 2.61000000000000E+0002  2.74160585403442E+0001
 2.60500000000000E+0002  2.76600351333618E+0001
 2.60000000000000E+0002  2.79469022750854E+0001
 2.59500000000000E+0002  2.72142705917358E+0001
 2.59000000000000E+0002  2.79214839935303E+0001
 2.58500000000000E+0002  2.72981252670288E+0001
 2.58000000000000E+0002  2.71844863891602E+0001
 2.57500000000000E+0002  2.83590354919434E+0001
 2.57000000000000E+0002  2.72744054794312E+0001
 2.56500000000000E+0002  2.79624080657959E+0001
 2.56000000000000E+0002  2.75826864242554E+0001
 2.55500000000000E+0002  2.80331010818481E+0001
 2.55000000000000E+0002  2.86898450851440E+0001
 2.54500000000000E+0002  2.98887138366699E+0001
 2.54000000000000E+0002  2.77605018615723E+0001
 2.53500000000000E+0002  2.72473516464233E+0001
 2.53000000000000E+0002  2.80403785705566E+0001
 2.52500000000000E+0002  2.84627580642700E+0001
 2.52000000000000E+0002  2.65817670822144E+0001
 2.51500000000000E+0002  2.87010364532471E+0001
 2.51000000000000E+0002  2.82007684707642E+0001
 2.50500000000000E+0002  2.72671461105347E+0001
 2.50000000000000E+0002  2.81946811676025E+0001
 2.49500000000000E+0002  2.84372167587280E+0001
 2.49000000000000E+0002  2.80436029434204E+0001
 2.48500000000000E+0002  2.81930494308472E+0001
 2.48000000000000E+0002  2.79179506301880E+0001
 2.47500000000000E+0002  2.87399902343750E+0001
 2.47000000000000E+0002  2.83571224212646E+0001
 2.46500000000000E+0002  2.76264505386353E+0001
 2.46000000000000E+0002  2.87130928039551E+0001
 2.45500000000000E+0002  2.89845571517944E+0001
 2.45000000000000E+0002  2.83627490997314E+0001
 2.44500000000000E+0002  2.76266956329346E+0001
 2.44000000000000E+0002  2.87803125381470E+0001
 2.43500000000000E+0002  2.75649900436401E+0001
 2.43000000000000E+0002  2.80762348175049E+0001
 2.42500000000000E+0002  2.98662662506103E+0001
 2.42000000000000E+0002  2.70334444046021E+0001
 2.41500000000000E+0002  2.81593799591064E+0001
 2.41000000000000E+0002  2.86570959091186E+0001
 2.40500000000000E+0002  2.80010671615601E+0001
 2.40000000000000E+0002  2.85264835357666E+0001
 2.39500000000000E+0002  2.84531993865967E+0001
 2.39000000000000E+0002  2.83591051101685E+0001
 2.38500000000000E+0002  2.88205518722534E+0001
 2.38000000000000E+0002  2.83040781021118E+0001
 2.37500000000000E+0002  2.93794326782227E+0001
 2.37000000000000E+0002  2.80951652526855E+0001
 2.36500000000000E+0002  2.87966270446777E+0001
 2.36000000000000E+0002  2.84706039428711E+0001
 2.35500000000000E+0002  2.95246391296387E+0001
 2.35000000000000E+0002  2.85143327713013E+0001
 2.34500000000000E+0002  2.91180391311646E+0001
 2.34000000000000E+0002  2.93719520568848E+0001
 2.33500000000000E+0002  2.92226724624634E+0001
 2.33000000000000E+0002  2.96558494567871E+0001
 2.32500000000000E+0002  2.96555070877075E+0001
 2.32000000000000E+0002  2.91010961532593E+0001
 2.31500000000000E+0002  2.98512525558472E+0001
 2.31000000000000E+0002  2.90827579498291E+0001
 2.30500000000000E+0002  2.99562711715698E+0001
 2.30000000000000E+0002  3.05960788726807E+0001
 2.29500000000000E+0002  2.89212503433228E+0001
 2.29000000000000E+0002  2.96937484741211E+0001
 2.28500000000000E+0002  2.92235307693481E+0001
 2.28000000000000E+0002  3.04763660430908E+0001
 2.27500000000000E+0002  2.88792886734009E+0001
 2.27000000000000E+0002  2.91282720565796E+0001
 2.26500000000000E+0002  3.00966033935547E+0001
 2.26000000000000E+0002  2.95662221908569E+0001
 2.25500000000000E+0002  2.94281539916992E+0001
 2.25000000000000E+0002  3.03359985351562E+0001
 2.24500000000000E+0002  2.94937686920166E+0001
 2.24000000000000E+0002  3.04460592269897E+0001
 2.23500000000000E+0002  3.04039306640625E+0001
 2.23000000000000E+0002  2.95659322738647E+0001
 2.22500000000000E+0002  2.98239297866821E+0001
 2.22000000000000E+0002  2.90549488067627E+0001
 2.21500000000000E+0002  2.90500907897949E+0001
 2.21000000000000E+0002  2.99558296203613E+0001
 2.20500000000000E+0002  3.04334707260132E+0001
 2.20000000000000E+0002  2.98595724105835E+0001
 2.19500000000000E+0002  2.88798675537109E+0001
 2.19000000000000E+0002  2.94417457580566E+0001
 2.18500000000000E+0002  2.98210506439209E+0001
 2.18000000000000E+0002  3.00927772521973E+0001
 2.17500000000000E+0002  2.98113222122192E+0001
 2.17000000000000E+0002  3.07320508956909E+0001
 2.16500000000000E+0002  2.99040079116821E+0001
 2.16000000000000E+0002  3.11280202865601E+0001
 2.15500000000000E+0002  3.07179651260376E+0001
 2.15000000000000E+0002  3.09248104095459E+0001
 2.14500000000000E+0002  3.16528882980347E+0001
 2.14000000000000E+0002  3.22305068969727E+0001
 2.13500000000000E+0002  3.18294525146484E+0001
 2.13000000000000E+0002  3.20136985778809E+0001
 2.12500000000000E+0002  3.18878746032715E+0001
 2.12000000000000E+0002  3.19430246353149E+0001
 2.11500000000000E+0002  3.33685073852539E+0001
 2.11000000000000E+0002  3.55993022918701E+0001
 2.10500000000000E+0002  3.38524208068848E+0001
 2.10000000000000E+0002  3.50212879180908E+0001
 2.09500000000000E+0002  3.51309986114502E+0001
 2.09000000000000E+0002  3.44373836517334E+0001
 2.08500000000000E+0002  3.45885162353516E+0001
 2.08000000000000E+0002  3.49309673309326E+0001
 2.07500000000000E+0002  3.49522628784180E+0001
 2.07000000000000E+0002  3.53552532196045E+0001
 2.06500000000000E+0002  3.45836334228516E+0001
 2.06000000000000E+0002  3.33062324523926E+0001
 2.05500000000000E+0002  3.37615242004394E+0001
 2.05000000000000E+0002  3.36556320190430E+0001
 2.04500000000000E+0002  3.21045293807983E+0001
 2.04000000000000E+0002  3.32102813720703E+0001
 2.03500000000000E+0002  3.17017526626587E+0001
 2.03000000000000E+0002  3.08098621368408E+0001
 2.02500000000000E+0002  3.03416013717651E+0001
 2.02000000000000E+0002  3.00773830413818E+0001
 2.01500000000000E+0002  3.10178117752075E+0001
 2.01000000000000E+0002  2.92118778228760E+0001
 2.00500000000000E+0002  2.81134576797485E+0001
 2.00000000000000E+0002  2.98767070770264E+0001
 1.99500000000000E+0002  2.80349483489990E+0001
 1.99000000000000E+0002  2.68529605865479E+0001
 1.98500000000000E+0002  2.67886199951172E+0001
 1.98000000000000E+0002  2.76856307983398E+0001
 1.97500000000000E+0002  2.77097387313843E+0001
 1.97000000000000E+0002  2.70861177444458E+0001
 1.96500000000000E+0002  2.67196741104126E+0001
 1.96000000000000E+0002  2.51063966751099E+0001
 1.95500000000000E+0002  2.52359294891357E+0001
 1.95000000000000E+0002  2.65500011444092E+0001
 1.94500000000000E+0002  2.62137861251831E+0001
 1.94000000000000E+0002  2.76779193878174E+0001
 1.93500000000000E+0002  2.64453172683716E+0001
 1.93000000000000E+0002  2.68467607498169E+0001
 1.92500000000000E+0002  2.73983373641968E+0001
 1.92000000000000E+0002  2.83449487686157E+0001
 1.91500000000000E+0002  2.89374380111694E+0001
 1.91000000000000E+0002  3.07397832870483E+0001
 1.90500000000000E+0002  3.13562088012695E+0001
 1.90000000000000E+0002  3.27335863113403E+0001
 1.89500000000000E+0002  3.26333799362183E+0001
 1.89000000000000E+0002  3.69638900756836E+0001
 1.88500000000000E+0002  3.82438125610352E+0001
 1.88000000000000E+0002  3.74797039031982E+0001
 1.87500000000000E+0002  3.84782028198242E+0001
 1.87000000000000E+0002  4.01037139892578E+0001
 1.86500000000000E+0002  4.18882255554199E+0001
 1.86000000000000E+0002  4.26180381774902E+0001
 1.85500000000000E+0002  4.38274650573730E+0001
 1.85000000000000E+0002  4.39903602600098E+0001
 1.84500000000000E+0002  4.24294147491455E+0001
 1.84000000000000E+0002  4.31012687683105E+0001
 1.83500000000000E+0002  4.09137210845947E+0001
 1.83000000000000E+0002  3.98529949188232E+0001
 1.82500000000000E+0002  3.81455211639404E+0001
 1.82000000000000E+0002  3.61957988739014E+0001
 1.81500000000000E+0002  3.59007740020752E+0001
 1.81000000000000E+0002  3.41713657379150E+0001
 1.80500000000000E+0002  3.32778511047363E+0001
 1.80000000000000E+0002  3.01634664535522E+0001
 1.79500000000000E+0002  2.73071832656860E+0001
 1.79000000000000E+0002  2.64933252334595E+0001
 1.78500000000000E+0002  2.42444143295288E+0001
 1.78000000000000E+0002  2.27557106018066E+0001
 1.77500000000000E+0002  2.14942502975464E+0001
 1.77000000000000E+0002  1.95280885696411E+0001
 1.76500000000000E+0002  1.71694593429565E+0001
 1.76000000000000E+0002  1.65769920349121E+0001
 1.75500000000000E+0002  1.42668395042419E+0001
 1.75000000000000E+0002  1.42843084335327E+0001
 1.74500000000000E+0002  1.24281291961670E+0001
 1.74000000000000E+0002  1.14448804855347E+0001
 1.73500000000000E+0002  1.02847652435303E+0001
 1.73000000000000E+0002  1.08607516288757E+0001
 1.72500000000000E+0002  1.01681623458862E+0001
 1.72000000000000E+0002  9.30908584594727E+0000
 1.71500000000000E+0002  9.05511713027954E+0000
 1.71000000000000E+0002  9.32693481445313E+0000
 1.70500000000000E+0002  9.24221658706665E+0000
 1.70000000000000E+0002  8.18252801895142E+0000
 1.69500000000000E+0002  8.24556541442871E+0000
 1.69000000000000E+0002  8.45626664161682E+0000
 1.68500000000000E+0002  7.82310295104980E+0000
 1.68000000000000E+0002  7.83220744132996E+0000
 1.67500000000000E+0002  8.65309095382690E+0000
 1.67000000000000E+0002  7.50653457641602E+0000
 1.66500000000000E+0002  7.59306359291077E+0000
 1.66000000000000E+0002  7.69311523437500E+0000
 1.65500000000000E+0002  7.50457143783569E+0000
 1.65000000000000E+0002  7.89448070526123E+0000
 1.64500000000000E+0002  8.04935264587402E+0000
 1.64000000000000E+0002  7.67848563194275E+0000
 1.63500000000000E+0002  8.31330633163452E+0000
 1.63000000000000E+0002  8.18752551078796E+0000
 1.62500000000000E+0002  7.58459997177124E+0000
 1.62000000000000E+0002  7.58953118324280E+0000
 1.61500000000000E+0002  7.21859025955200E+0000
 1.61000000000000E+0002  7.71005201339722E+0000
 1.60500000000000E+0002  7.33213400840759E+0000
 1.60000000000000E+0002  7.55531358718872E+0000
 1.59500000000000E+0002  7.69407653808594E+0000
 1.59000000000000E+0002  8.05482268333435E+0000
 1.58500000000000E+0002  7.54231929779053E+0000
 1.58000000000000E+0002  7.00229644775391E+0000
 1.57500000000000E+0002  7.38629508018494E+0000
 1.57000000000000E+0002  7.69485569000244E+0000
 1.56500000000000E+0002  7.11444330215454E+0000
 1.56000000000000E+0002  6.71845030784607E+0000
 1.55500000000000E+0002  7.65851736068726E+0000
 1.55000000000000E+0002  7.61131358146668E+0000
 1.54500000000000E+0002  7.86002707481384E+0000
 1.54000000000000E+0002  7.57059478759766E+0000
 1.53500000000000E+0002  8.08045649528503E+0000
 1.53000000000000E+0002  6.73594594001770E+0000
 1.52500000000000E+0002  7.37495326995850E+0000
 1.52000000000000E+0002  7.78321814537048E+0000
 1.51500000000000E+0002  7.11981558799744E+0000
 1.51000000000000E+0002  7.00438117980957E+0000
 1.50500000000000E+0002  7.45546126365662E+0000
 1.50000000000000E+0002  7.70109224319458E+0000
 1.49500000000000E+0002  7.41448855400086E+0000
 1.49000000000000E+0002  7.40539073944092E+0000
 1.48500000000000E+0002  7.47215414047241E+0000
 1.48000000000000E+0002  7.61119461059570E+0000
 1.47500000000000E+0002  8.03424572944641E+0000
 1.47000000000000E+0002  7.31562161445618E+0000
 1.46500000000000E+0002  7.59810471534729E+0000
 1.46000000000000E+0002  8.10877132415772E+0000
 1.45500000000000E+0002  8.07721829414368E+0000
 1.45000000000000E+0002  7.44766044616699E+0000
 1.44500000000000E+0002  7.30038237571716E+0000
 1.44000000000000E+0002  7.94071507453918E+0000
 1.43500000000000E+0002  7.78576731681824E+0000
 1.43000000000000E+0002  7.44537639617920E+0000
 1.42500000000000E+0002  7.42915701866150E+0000
 1.42000000000000E+0002  7.55637192726135E+0000
 1.41500000000000E+0002  7.63003587722778E+0000
 1.41000000000000E+0002  7.96602225303650E+0000
 1.40500000000000E+0002  7.62294101715088E+0000
 1.40000000000000E+0002  7.52841019630432E+0000
 1.39500000000000E+0002  7.47959303855896E+0000
 1.39000000000000E+0002  7.66043210029602E+0000
 1.38500000000000E+0002  7.97931814193726E+0000
 1.38000000000000E+0002  7.38869357109070E+0000
 1.37500000000000E+0002  7.08780717849731E+0000
 1.37000000000000E+0002  7.99230241775513E+0000
 1.36500000000000E+0002  6.91461753845215E+0000
 1.36000000000000E+0002  7.10496902465820E+0000
 1.35500000000000E+0002  7.75319766998291E+0000
 1.35000000000000E+0002  7.23871588706970E+0000
 1.34500000000000E+0002  8.32568359375000E+0000
 1.34000000000000E+0002  8.02336311340332E+0000
 1.33500000000000E+0002  7.76942992210388E+0000
 1.33000000000000E+0002  8.23221683502197E+0000
 1.32500000000000E+0002  7.69289994239807E+0000
 1.32000000000000E+0002  7.58140754699707E+0000
 1.31500000000000E+0002  7.99015021324158E+0000
 1.31000000000000E+0002  7.64664244651794E+0000
 1.30500000000000E+0002  7.67810344696045E+0000
 1.30000000000000E+0002  7.50106406211853E+0000
 1.29500000000000E+0002  7.93710899353027E+0000
 1.29000000000000E+0002  7.63502359390259E+0000
 1.28500000000000E+0002  7.84621167182922E+0000
 1.28000000000000E+0002  8.37057113647461E+0000
 1.27500000000000E+0002  8.70043230056763E+0000
 1.27000000000000E+0002  7.93250322341919E+0000
 1.26500000000000E+0002  8.10941505432129E+0000
 1.26000000000000E+0002  8.37268686294556E+0000
 1.25500000000000E+0002  8.51892042160034E+0000
 1.25000000000000E+0002  8.73350286483765E+0000
 1.24500000000000E+0002  8.80791378021240E+0000
 1.24000000000000E+0002  8.51066088676453E+0000
 1.23500000000000E+0002  9.15007019042969E+0000
 1.23000000000000E+0002  8.78588438034058E+0000
 1.22500000000000E+0002  8.67470216751099E+0000
 1.22000000000000E+0002  8.30175304412842E+0000
 1.21500000000000E+0002  7.85864806175232E+0000
 1.21000000000000E+0002  7.46737456321716E+0000
 1.20500000000000E+0002  7.16180229187012E+0000
 1.20000000000000E+0002  7.53626751899719E+0000
 1.19500000000000E+0002  7.83544778823853E+0000
 1.19000000000000E+0002  7.38192296028137E+0000
 1.18500000000000E+0002  7.22028303146362E+0000
 1.18000000000000E+0002  6.85625624656677E+0000
 1.17500000000000E+0002  7.38595747947693E+0000
 1.17000000000000E+0002  7.27986502647400E+0000
 1.16500000000000E+0002  7.00362539291382E+0000
 1.16000000000000E+0002  7.51459407806397E+0000
 1.15500000000000E+0002  7.42634844779968E+0000
 1.15000000000000E+0002  7.33646750450134E+0000
 1.14500000000000E+0002  7.23137927055359E+0000
 1.14000000000000E+0002  7.48796200752258E+0000
 1.13500000000000E+0002  7.29370617866516E+0000
 1.13000000000000E+0002  7.80297684669495E+0000
 1.12500000000000E+0002  7.44008588790894E+0000
 1.12000000000000E+0002  7.20813798904419E+0000
 1.11500000000000E+0002  7.27469515800476E+0000
 1.11000000000000E+0002  7.47347187995911E+0000
 1.10500000000000E+0002  7.45082163810730E+0000
 1.10000000000000E+0002  7.77477598190308E+0000
 1.09500000000000E+0002  7.15016937255859E+0000
 1.09000000000000E+0002  7.56004619598389E+0000
 1.08500000000000E+0002  7.94064807891846E+0000
 1.08000000000000E+0002  7.33402705192566E+0000
 1.07500000000000E+0002  7.46190333366394E+0000
 1.07000000000000E+0002  7.90241456031799E+0000
 1.06500000000000E+0002  7.48928451538086E+0000
 1.06000000000000E+0002  8.04375600814819E+0000
 1.05500000000000E+0002  7.72264266014099E+0000
 1.05000000000000E+0002  7.67984247207642E+0000
 1.04500000000000E+0002  7.55744051933289E+0000
 1.04000000000000E+0002  7.93978595733643E+0000
 1.03500000000000E+0002  6.88164925575256E+0000
 1.03000000000000E+0002  7.48351526260376E+0000
 1.02500000000000E+0002  7.64688205718994E+0000
 1.02000000000000E+0002  7.33882951736450E+0000
 1.01500000000000E+0002  7.23238420486450E+0000
 1.01000000000000E+0002  7.28309345245361E+0000
 1.00500000000000E+0002  7.41245770454407E+0000
 1.00000000000000E+0002  7.88935899734497E+0000
 9.95000000000000E+0001  7.43722057342529E+0000
 9.90000000000000E+0001  7.82673311233521E+0000
 9.85000000000000E+0001  7.24195432662964E+0000
 9.80000000000000E+0001  7.38302683830261E+0000
 9.75000000000000E+0001  7.82957911491394E+0000
 9.70000000000000E+0001  7.92190837860107E+0000
 9.65000000000000E+0001  7.28777647018433E+0000
 9.60000000000000E+0001  7.33989310264587E+0000
 9.55000000000000E+0001  6.75612807273865E+0000
 9.50000000000000E+0001  7.22064709663391E+0000
 9.45000000000000E+0001  7.75029182434082E+0000
 9.40000000000000E+0001  7.16836166381836E+0000
 9.35000000000000E+0001  7.80621647834778E+0000
 9.30000000000000E+0001  8.01436567306519E+0000
 9.25000000000000E+0001  8.09873890876770E+0000
 9.20000000000000E+0001  7.47463059425354E+0000
 9.15000000000000E+0001  7.47882318496704E+0000
 9.10000000000000E+0001  7.43978595733643E+0000
 9.05000000000000E+0001  7.22225928306580E+0000
 9.00000000000000E+0001  7.86526870727539E+0000
 8.95000000000000E+0001  7.64847445487976E+0000
 8.90000000000000E+0001  6.97944450378418E+0000
 8.85000000000000E+0001  7.31511807441711E+0000
 8.80000000000000E+0001  7.21485972404480E+0000
 8.75000000000000E+0001  7.48153829574585E+0000
 8.70000000000000E+0001  7.89823985099793E+0000
 8.65000000000000E+0001  7.69144940376282E+0000
 8.60000000000000E+0001  7.41043257713318E+0000
 8.55000000000000E+0001  8.05988311767578E+0000
 8.50000000000000E+0001  7.99661278724670E+0000
 8.45000000000000E+0001  7.39058995246887E+0000
 8.40000000000000E+0001  7.78852152824402E+0000
 8.35000000000000E+0001  8.17535591125488E+0000
 8.30000000000000E+0001  8.09782505035400E+0000
 8.25000000000000E+0001  8.30046558380127E+0000
 8.20000000000000E+0001  8.27479076385498E+0000
 8.15000000000000E+0001  8.41881680488586E+0000
 8.10000000000000E+0001  8.48071718215942E+0000
 8.05000000000000E+0001  9.57038164138794E+0000
 8.00000000000000E+0001  9.97489261627197E+0000
 7.95000000000000E+0001  1.02020826339722E+0001
 7.90000000000000E+0001  1.02617058753967E+0001
 7.85000000000000E+0001  1.14097576141357E+0001
 7.80000000000000E+0001  1.14545621871948E+0001
 7.75000000000000E+0001  1.19368124008179E+0001
 7.70000000000000E+0001  1.18111243247986E+0001
 7.65000000000000E+0001  1.25376129150391E+0001
 7.60000000000000E+0001  1.17991147041321E+0001
 7.55000000000000E+0001  1.01775240898132E+0001
 7.50000000000000E+0001  9.22047042846680E+0000
 7.45000000000000E+0001  8.57978200912476E+0000
 7.40000000000000E+0001  8.11480236053467E+0000
 7.35000000000000E+0001  7.16338968276978E+0000
 7.30000000000000E+0001  6.78505825996399E+0000
 7.25000000000000E+0001  7.10533499717712E+0000
 7.20000000000000E+0001  6.84750413894653E+0000
 7.15000000000000E+0001  6.79342699050903E+0000
 7.10000000000000E+0001  6.55577921867371E+0000
 7.05000000000000E+0001  6.90995121002197E+0000
 7.00000000000000E+0001  7.34079909324646E+0000
 6.95000000000000E+0001  6.63140487670898E+0000
 6.90000000000000E+0001  6.63082218170166E+0000
 6.85000000000000E+0001  6.91724610328674E+0000
 6.80000000000000E+0001  6.70427608489990E+0000
 6.75000000000000E+0001  6.65797400474548E+0000
 6.70000000000000E+0001  6.09517097473145E+0000
 6.65000000000000E+0001  6.32945752143860E+0000
 6.60000000000000E+0001  6.15921998023987E+0000
 6.55000000000000E+0001  6.48079776763916E+0000
 6.50000000000000E+0001  6.06252336502075E+0000
 6.45000000000000E+0001  5.96409201622009E+0000
 6.40000000000000E+0001  6.36373782157898E+0000
 6.35000000000000E+0001  6.02819657325745E+0000
 6.30000000000000E+0001  6.15029478073120E+0000
 6.25000000000000E+0001  6.18522858619690E+0000
 6.20000000000000E+0001  6.08527231216431E+0000
 6.15000000000000E+0001  5.94272851943970E+0000
 6.10000000000000E+0001  5.49161338806152E+0000
 6.05000000000000E+0001  5.84583449363709E+0000
 6.00000000000000E+0001  6.14158153533935E+0000
 5.95000000000000E+0001  5.83253598213196E+0000
 5.90000000000000E+0001  6.04908895492554E+0000
 5.85000000000000E+0001  5.50727486610413E+0000
 5.80000000000000E+0001  5.30983185768127E+0000
 5.75000000000000E+0001  5.36630082130432E+0000
 5.70000000000000E+0001  5.97590327262878E+0000
 5.65000000000000E+0001  6.16755247116089E+0000
 5.60000000000000E+0001  5.51018214225769E+0000
 5.55000000000000E+0001  5.63176131248474E+0000
 5.50000000000000E+0001  5.60536289215088E+0000
 5.45000000000000E+0001  5.33389544486999E+0000
 5.40000000000000E+0001  5.22665143013001E+0000
 5.35000000000000E+0001  5.73671388626099E+0000
 5.30000000000000E+0001  4.98470711708069E+0000
 5.25000000000000E+0001  4.95655560493469E+0000
 5.20000000000000E+0001  5.26677179336548E+0000
 5.15000000000000E+0001  5.38998079299927E+0000
 5.10000000000000E+0001  5.41117262840271E+0000
 5.05000000000000E+0001  6.53120923042297E+0000
 5.00000000000000E+0001  5.49584364891052E+0000
 4.95000000000000E+0001  5.60610556602478E+0000
 4.90000000000000E+0001  5.92543029785156E+0000
 4.85000000000000E+0001  6.08582401275635E+0000
 4.80000000000000E+0001  6.27720785140991E+0000
 4.75000000000000E+0001  6.80400896072388E+0000
 4.70000000000000E+0001  7.18139290809631E+0000
 4.65000000000000E+0001  7.31049203872681E+0000
 4.60000000000000E+0001  8.30210781097412E+0000
 4.55000000000000E+0001  8.82399272918701E+0000
 4.50000000000000E+0001  8.85550832748413E+0000
 4.45000000000000E+0001  9.48238754272461E+0000
 4.40000000000000E+0001  1.00684800148010E+0001
 4.35000000000000E+0001  1.01343603134155E+0001
 4.30000000000000E+0001  1.05481557846069E+0001
 4.25000000000000E+0001  1.07369055747986E+0001
 4.20000000000000E+0001  9.94805574417114E+0000
 4.15000000000000E+0001  1.04655432701111E+0001
 4.10000000000000E+0001  1.03310799598694E+0001
 4.05000000000000E+0001  8.84994792938232E+0000
 4.00000000000000E+0001  8.84601259231567E+0000
 3.95000000000000E+0001  7.88627338409424E+0000
 3.90000000000000E+0001  7.77723908424377E+0000
 3.85000000000000E+0001  7.47170066833496E+0000
 3.80000000000000E+0001  7.55770635604858E+0000
 3.75000000000000E+0001  6.82902503013611E+0000
 3.70000000000000E+0001  7.34552597999573E+0000
 3.65000000000000E+0001  6.54830217361450E+0000
 3.60000000000000E+0001  6.57310938835144E+0000
 3.55000000000000E+0001  6.68365669250488E+0000
 3.50000000000000E+0001  6.12285590171814E+0000
 3.45000000000000E+0001  6.34153699874878E+0000
 3.40000000000000E+0001  5.81922030448914E+0000
 3.35000000000000E+0001  5.42703485488892E+0000
 3.30000000000000E+0001  4.74268388748169E+0000
 3.25000000000000E+0001  4.94979286193848E+0000
 3.20000000000000E+0001  5.05556011199951E+0000
 3.15000000000000E+0001  4.76476192474365E+0000
 3.10000000000000E+0001  4.73768258094788E+0000
 3.05000000000000E+0001  5.12235236167908E+0000
 3.00000000000000E+0001  4.78329133987427E+0000
 2.95000000000000E+0001  4.65870189666748E+0000
 2.90000000000000E+0001  5.50917816162109E+0000
 2.85000000000000E+0001  5.32811808586121E+0000
 2.80000000000000E+0001  5.35959601402283E+0000
 2.75000000000000E+0001  5.87902688980103E+0000
 2.70000000000000E+0001  5.95610761642456E+0000
 2.65000000000000E+0001  5.89138960838318E+0000
 2.60000000000000E+0001  6.14238023757935E+0000
 2.55000000000000E+0001  6.30295920372009E+0000
 2.50000000000000E+0001  5.62779045104980E+0000
 2.45000000000000E+0001  5.89443302154541E+0000
 2.40000000000000E+0001  4.71193790435791E+0000
 2.35000000000000E+0001  4.82966780662537E+0000
 2.30000000000000E+0001  4.24808144569397E+0000
 2.25000000000000E+0001  4.14013123512268E+0000
 2.20000000000000E+0001  4.15745246410370E+0000
 2.15000000000000E+0001  3.49424421787262E+0000
 2.10000000000000E+0001  3.70795667171478E+0000
 2.05000000000000E+0001  3.56178426742554E+0000
 2.00000000000000E+0001  3.83388638496399E+0000
 1.95000000000000E+0001  3.56415927410126E+0000
 1.90000000000000E+0001  3.62975823879242E+0000
 1.85000000000000E+0001  3.54051661491394E+0000
 1.80000000000000E+0001  3.53013384342194E+0000
 1.75000000000000E+0001  3.75423073768616E+0000
 1.70000000000000E+0001  3.82150423526764E+0000
 1.65000000000000E+0001  3.49362599849701E+0000
 1.60000000000000E+0001  3.94037878513336E+0000
 1.55000000000000E+0001  3.79974913597107E+0000
 1.50000000000000E+0001  3.84475374221802E+0000
 1.45000000000000E+0001  3.85088109970093E+0000
 1.40000000000000E+0001  4.12184560298920E+0000
 1.35000000000000E+0001  4.37779998779297E+0000
 1.30000000000000E+0001  3.99528896808624E+0000
 1.25000000000000E+0001  4.36825609207153E+0000
 1.20000000000000E+0001  4.67584276199341E+0000
 1.15000000000000E+0001  4.70844745635986E+0000
 1.10000000000000E+0001  4.36091613769531E+0000
 1.05000000000000E+0001  4.88797187805176E+0000
 1.00000000000000E+0001  5.32082891464233E+0000
 9.50000000000000E+0000  4.68104672431946E+0000
 9.00000000000000E+0000  4.86546611785889E+0000
 8.50000000000000E+0000  4.22364735603333E+0000
 8.00000000000000E+0000  4.13856410980225E+0000
 7.50000000000000E+0000  4.35586667060852E+0000
 7.00000000000000E+0000  4.18401789665222E+0000
 6.50000000000000E+0000  4.21036243438721E+0000
 6.00000000000000E+0000  4.64470744132996E+0000
 5.50000000000000E+0000  5.76407861709595E+0000
 5.00000000000000E+0000  6.46173167228699E+0000
 4.50000000000000E+0000  6.68277931213379E+0000
 4.00000000000000E+0000  5.57623934745789E+0000
 3.50000000000000E+0000  4.41161251068115E+0000
 3.00000000000000E+0000  3.70129275321960E+0000
 2.50000000000000E+0000  3.02059280872345E+0000
 2.00000000000000E+0000  1.75596451759338E+0000
 1.50000000000000E+0000  9.14444118738174E-0001
 1.00000000000000E+0000  6.45128428936005E-0001
 5.00000000000000E-0001  3.96916747093201E-0001
 0.00000000000000E+0000  1.02758085355163E-0001
-5.00000000000000E-0001  7.31712579727173E-0002
-1.00000000000000E+0000  5.31843788921833E-0002
-1.50000000000000E+0000  3.31006646156311E-0002
-2.00000000000000E+0000  3.78187946043909E-0002
-2.50000000000000E+0000  2.38664532080293E-0002
-3.00000000000000E+0000  5.11541925370693E-0002
-3.50000000000000E+0000  2.78654443100095E-0002
-4.00000000000000E+0000  4.86998064443469E-0002
-4.50000000000000E+0000  3.05958706885576E-0002
-5.00000000000000E+0000  4.49662376195192E-0003
-5.50000000000000E+0000  1.56721025705338E-0002
-6.00000000000000E+0000  1.47404270246625E-0002
-6.50000000000000E+0000  1.20282135903835E-0002
-7.00000000000000E+0000  1.09633745159954E-0002
-7.50000000000000E+0000  2.24760044366121E-0002
-8.00000000000000E+0000  1.80351184681058E-0002
-8.50000000000000E+0000  1.60858267918229E-0002
-9.00000000000000E+0000  2.31944606639445E-0003
-9.50000000000000E+0000  1.29272422636859E-0002
-1.00000000000000E+0001  4.88560907542706E-0002

