[Info]
Number of Regions=0001
Version=1.3.1

[Region 1]
Region Name=VB
Dimension 1 name=Binding Energy [eV]
Dimension 1 size=801
Dimension 1 scale=30 29.95 29.9 29.85 29.8 29.75 29.7 29.65 29.6 29.55 29.5 29.45 29.4 29.35 29.3 29.25 29.2 29.15 29.1 29.05 29 28.95 28.9 28.85 28.8 28.75 28.7 28.65 28.6 28.55 28.5 28.45 28.4 28.35 28.3 28.25 28.2 28.15 28.1 28.05 28 27.95 27.9 27.85 27.8 27.75 27.7 27.65 27.6 27.55 27.5 27.45 27.4 27.35 27.3 27.25 27.2 27.15 27.1 27.05 27 26.95 26.9 26.85 26.8 26.75 26.7 26.65 26.6 26.55 26.5 26.45 26.4 26.35 26.3 26.25 26.2 26.15 26.1 26.05 26 25.95 25.9 25.85 25.8 25.75 25.7 25.65 25.6 25.55 25.5 25.45 25.4 25.35 25.3 25.25 25.2 25.15 25.1 25.05 25 24.95 24.9 24.85 24.8 24.75 24.7 24.65 24.6 24.55 24.5 24.45 24.4 24.35 24.3 24.25 24.2 24.15 24.1 24.05 24 23.95 23.9 23.85 23.8 23.75 23.7 23.65 23.6 23.55 23.5 23.45 23.4 23.35 23.3 23.25 23.2 23.15 23.1 23.05 23 22.95 22.9 22.85 22.8 22.75 22.7 22.65 22.6 22.55 22.5 22.45 22.4 22.35 22.3 22.25 22.2 22.15 22.1 22.05 22 21.95 21.9 21.85 21.8 21.75 21.7 21.65 21.6 21.55 21.5 21.45 21.4 21.35 21.3 21.25 21.2 21.15 21.1 21.05 21 20.95 20.9 20.85 20.8 20.75 20.7 20.65 20.6 20.55 20.5 20.45 20.4 20.35 20.3 20.25 20.2 20.15 20.1 20.05 20 19.95 19.9 19.85 19.8 19.75 19.7 19.65 19.6 19.55 19.5 19.45 19.4 19.35 19.3 19.25 19.2 19.15 19.1 19.05 19 18.95 18.9 18.85 18.8 18.75 18.7 18.65 18.6 18.55 18.5 18.45 18.4 18.35 18.3 18.25 18.2 18.15 18.1 18.05 18 17.95 17.9 17.85 17.8 17.75 17.7 17.65 17.6 17.55 17.5 17.45 17.4 17.35 17.3 17.25 17.2 17.15 17.1 17.05 17 16.95 16.9 16.85 16.8 16.75 16.7 16.65 16.6 16.55 16.5 16.45 16.4 16.35 16.3 16.25 16.2 16.15 16.1 16.05 16 15.95 15.9 15.85 15.8 15.75 15.7 15.65 15.6 15.55 15.5 15.45 15.4 15.35 15.3 15.25 15.2 15.15 15.1 15.05 15 14.95 14.9 14.85 14.8 14.75 14.7 14.65 14.6 14.55 14.5 14.45 14.4 14.35 14.3 14.25 14.2 14.15 14.1 14.05 14 13.95 13.9 13.85 13.8 13.75 13.7 13.65 13.6 13.55 13.5 13.45 13.4 13.35 13.3 13.25 13.2 13.15 13.1 13.05 13 12.95 12.9 12.85 12.8 12.75 12.7 12.65 12.6 12.55 12.5 12.45 12.4 12.35 12.3 12.25 12.2 12.15 12.1 12.05 12 11.95 11.9 11.85 11.8 11.75 11.7 11.65 11.6 11.55 11.5 11.45 11.4 11.35 11.3 11.25 11.2 11.15 11.1 11.05 11 10.95 10.9 10.85 10.8 10.75 10.7 10.65 10.6 10.55 10.5 10.45 10.4 10.35 10.3 10.25 10.2 10.15 10.1 10.05 10 9.94999999999999 9.90000000000001 9.84999999999999 9.80000000000001 9.75 9.69999999999999 9.65000000000001 9.59999999999999 9.55000000000001 9.5 9.44999999999999 9.40000000000001 9.34999999999999 9.30000000000001 9.25 9.19999999999999 9.15000000000001 9.09999999999999 9.05000000000001 9 8.94999999999999 8.90000000000001 8.84999999999999 8.80000000000001 8.75 8.69999999999999 8.65000000000001 8.59999999999999 8.55000000000001 8.5 8.44999999999999 8.40000000000001 8.34999999999999 8.30000000000001 8.25 8.19999999999999 8.15000000000001 8.09999999999999 8.05000000000001 8 7.94999999999999 7.90000000000001 7.84999999999999 7.80000000000001 7.75 7.69999999999999 7.65000000000001 7.59999999999999 7.55000000000001 7.5 7.44999999999999 7.40000000000001 7.34999999999999 7.30000000000001 7.25 7.19999999999999 7.15000000000001 7.09999999999999 7.05000000000001 7 6.94999999999999 6.90000000000001 6.84999999999999 6.80000000000001 6.75 6.69999999999999 6.65000000000001 6.59999999999999 6.55000000000001 6.5 6.44999999999999 6.40000000000001 6.34999999999999 6.30000000000001 6.25 6.19999999999999 6.15000000000001 6.09999999999999 6.05000000000001 6 5.94999999999999 5.90000000000001 5.84999999999999 5.80000000000001 5.75 5.69999999999999 5.65000000000001 5.59999999999999 5.55000000000001 5.5 5.44999999999999 5.40000000000001 5.34999999999999 5.30000000000001 5.25 5.19999999999999 5.15000000000001 5.09999999999999 5.05000000000001 5 4.94999999999999 4.90000000000001 4.84999999999999 4.80000000000001 4.75 4.69999999999999 4.65000000000001 4.59999999999999 4.55000000000001 4.5 4.44999999999999 4.40000000000001 4.34999999999999 4.30000000000001 4.25 4.19999999999999 4.15000000000001 4.09999999999999 4.05000000000001 4 3.94999999999999 3.90000000000001 3.84999999999999 3.80000000000001 3.75 3.69999999999999 3.65000000000001 3.59999999999999 3.55000000000001 3.5 3.44999999999999 3.40000000000001 3.34999999999999 3.30000000000001 3.25 3.19999999999999 3.15000000000001 3.09999999999999 3.05000000000001 3 2.94999999999999 2.90000000000001 2.84999999999999 2.80000000000001 2.75 2.69999999999999 2.65000000000001 2.59999999999999 2.55000000000001 2.5 2.44999999999999 2.40000000000001 2.34999999999999 2.30000000000001 2.25 2.19999999999999 2.15000000000001 2.09999999999999 2.05000000000001 2 1.94999999999999 1.90000000000001 1.84999999999999 1.80000000000001 1.75 1.69999999999999 1.65000000000001 1.59999999999999 1.55000000000001 1.5 1.44999999999999 1.40000000000001 1.34999999999999 1.30000000000001 1.25 1.19999999999999 1.15000000000001 1.09999999999999 1.05000000000001 1 0.949999999999989 0.900000000000006 0.849999999999994 0.800000000000011 0.75 0.699999999999989 0.650000000000006 0.599999999999994 0.550000000000011 0.5 0.449999999999989 0.400000000000006 0.349999999999994 0.300000000000011 0.25 0.199999999999989 0.150000000000006 0.0999999999999943 0.0500000000000114 0 -0.0500000000000114 -0.0999999999999943 -0.150000000000006 -0.199999999999989 -0.25 -0.300000000000011 -0.349999999999994 -0.400000000000006 -0.449999999999989 -0.5 -0.550000000000011 -0.599999999999994 -0.650000000000006 -0.699999999999989 -0.75 -0.800000000000011 -0.849999999999994 -0.900000000000006 -0.949999999999989 -1 -1.05000000000001 -1.09999999999999 -1.15000000000001 -1.19999999999999 -1.25 -1.30000000000001 -1.34999999999999 -1.40000000000001 -1.44999999999999 -1.5 -1.55000000000001 -1.59999999999999 -1.65000000000001 -1.69999999999999 -1.75 -1.80000000000001 -1.84999999999999 -1.90000000000001 -1.94999999999999 -2 -2.05000000000001 -2.09999999999999 -2.15000000000001 -2.19999999999999 -2.25 -2.30000000000001 -2.34999999999999 -2.40000000000001 -2.44999999999999 -2.5 -2.55000000000001 -2.59999999999999 -2.65000000000001 -2.69999999999999 -2.75 -2.80000000000001 -2.84999999999999 -2.90000000000001 -2.94999999999999 -3 -3.05000000000001 -3.09999999999999 -3.15000000000001 -3.19999999999999 -3.25 -3.30000000000001 -3.34999999999999 -3.40000000000001 -3.44999999999999 -3.5 -3.55000000000001 -3.59999999999999 -3.65000000000001 -3.69999999999999 -3.75 -3.80000000000001 -3.84999999999999 -3.90000000000001 -3.94999999999999 -4 -4.05000000000001 -4.09999999999999 -4.15000000000001 -4.19999999999999 -4.25 -4.30000000000001 -4.34999999999999 -4.40000000000001 -4.44999999999999 -4.5 -4.55000000000001 -4.59999999999999 -4.65000000000001 -4.69999999999999 -4.75 -4.80000000000001 -4.84999999999999 -4.90000000000001 -4.94999999999999 -5 -5.05000000000001 -5.09999999999999 -5.15000000000001 -5.19999999999999 -5.25 -5.30000000000001 -5.34999999999999 -5.40000000000001 -5.44999999999999 -5.5 -5.55000000000001 -5.59999999999999 -5.65000000000001 -5.69999999999999 -5.75 -5.80000000000001 -5.84999999999999 -5.90000000000001 -5.94999999999999 -6 -6.05000000000001 -6.09999999999999 -6.15000000000001 -6.19999999999999 -6.25 -6.30000000000001 -6.34999999999999 -6.40000000000001 -6.44999999999999 -6.5 -6.55000000000001 -6.59999999999999 -6.65000000000001 -6.69999999999999 -6.75 -6.80000000000001 -6.84999999999999 -6.90000000000001 -6.94999999999999 -7 -7.05000000000001 -7.09999999999999 -7.15000000000001 -7.19999999999999 -7.25 -7.30000000000001 -7.34999999999999 -7.40000000000001 -7.44999999999999 -7.5 -7.55000000000001 -7.59999999999999 -7.65000000000001 -7.69999999999999 -7.75 -7.80000000000001 -7.84999999999999 -7.90000000000001 -7.94999999999999 -8 -8.05000000000001 -8.09999999999999 -8.15000000000001 -8.19999999999999 -8.25 -8.30000000000001 -8.34999999999999 -8.40000000000001 -8.44999999999999 -8.5 -8.55000000000001 -8.59999999999999 -8.65000000000001 -8.69999999999999 -8.75 -8.80000000000001 -8.84999999999999 -8.90000000000001 -8.94999999999999 -9 -9.05000000000001 -9.09999999999999 -9.15000000000001 -9.19999999999999 -9.25 -9.30000000000001 -9.34999999999999 -9.40000000000001 -9.44999999999999 -9.5 -9.55000000000001 -9.59999999999999 -9.65000000000001 -9.69999999999999 -9.75 -9.80000000000001 -9.84999999999999 -9.90000000000001 -9.94999999999999 -10

[Info 1]
Region Name=VB
Lens Mode=Transmission
Pass Energy=50
Number of Sweeps=29
Excitation Energy=153
Energy Scale=Binding
Acquisition Mode=Swept
Energy Unit=Kinetic
Center Energy=143
Low Energy=123
High Energy=163
Energy Step=0.05
Step Time=203
Detector First X-Channel=43
Detector Last X-Channel=659
Detector First Y-Channel=91
Detector Last Y-Channel=398
Number of Slices=1
File=Z:\XPS_data\2023\Mar2023\KIT\Cu-HHTP_0005.txt,.pxt,.ibw
Sequence=D:\old files\data2\data\Cu-HTTP_Mar_23.seq
Spectrum Name=Cu-HHTP__005
Instrument=R3000-6MS014
Location=Scienta
User=AN
Sample=Cu-HHTP
Comments=;
Date=2023-03-08
Time=12:58:06
Time per Spectrum Channel=653.457
DetectorMode=ADC
[Run Mode Information 1]



[Data 1]
 3.00000000000000E+0001  8.72503052651882E+0000
 2.99500000000000E+0001  9.94268859922886E+0000
 2.99000000000000E+0001  9.87883821129799E+0000
 2.98500000000000E+0001  9.64199161529541E+0000
 2.98000000000000E+0001  9.47018690407276E+0000
 2.97500000000000E+0001  9.36993452906609E+0000
 2.97000000000000E+0001  9.37256252765656E+0000
 2.96500000000000E+0001  1.00323914438486E+0001
 2.96000000000000E+0001  1.01501767039299E+0001
 2.95500000000000E+0001  1.05523162633181E+0001
 2.95000000000000E+0001  9.66864143311977E+0000
 2.94500000000000E+0001  9.62277261912823E+0000
 2.94000000000000E+0001  9.95935073494911E+0000
 2.93500000000000E+0001  9.69966205954552E+0000
 2.93000000000000E+0001  9.69664853811264E+0000
 2.92500000000000E+0001  9.70572894811630E+0000
 2.92000000000000E+0001  9.82280008494854E+0000
 2.91500000000000E+0001  1.02239703536034E+0001
 2.91000000000000E+0001  1.01868967413902E+0001
 2.90500000000000E+0001  9.69424152374268E+0000
 2.90000000000000E+0001  9.90621648728847E+0000
 2.89500000000000E+0001  9.07424180209637E+0000
 2.89000000000000E+0001  9.90949955582619E+0000
 2.88500000000000E+0001  9.41281811892986E+0000
 2.88000000000000E+0001  1.10131499469280E+0001
 2.87500000000000E+0001  1.01361510455608E+0001
 2.87000000000000E+0001  9.63773465156555E+0000
 2.86500000000000E+0001  1.00834984034300E+0001
 2.86000000000000E+0001  9.92716011404991E+0000
 2.85500000000000E+0001  1.07698875218630E+0001
 2.85000000000000E+0001  1.00719157457352E+0001
 2.84500000000000E+0001  1.02707032263279E+0001
 2.84000000000000E+0001  1.13813936114311E+0001
 2.83500000000000E+0001  1.09976954013109E+0001
 2.83000000000000E+0001  1.06889692097902E+0001
 2.82500000000000E+0001  1.04675247371197E+0001
 2.82000000000000E+0001  1.04348242878914E+0001
 2.81500000000000E+0001  1.04300612062216E+0001
 2.81000000000000E+0001  1.07843434661627E+0001
 2.80500000000000E+0001  1.04809522330761E+0001
 2.80000000000000E+0001  1.07573363780975E+0001
 2.79500000000000E+0001  9.44360098242760E+0000
 2.79000000000000E+0001  1.09904353618622E+0001
 2.78500000000000E+0001  1.06026457697153E+0001
 2.78000000000000E+0001  1.05638766884804E+0001
 2.77500000000000E+0001  1.05839183032513E+0001
 2.77000000000000E+0001  1.05566567778587E+0001
 2.76500000000000E+0001  1.01740098893642E+0001
 2.76000000000000E+0001  1.06146364361048E+0001
 2.75500000000000E+0001  1.05092772543430E+0001
 2.75000000000000E+0001  1.07108896821737E+0001
 2.74500000000000E+0001  1.11356669068336E+0001
 2.74000000000000E+0001  1.03259004056454E+0001
 2.73500000000000E+0001  1.12472181469202E+0001
 2.73000000000000E+0001  1.10365208685398E+0001
 2.72500000000000E+0001  1.08389351963997E+0001
 2.72000000000000E+0001  1.07841271460056E+0001
 2.71500000000000E+0001  1.08660777509212E+0001
 2.71000000000000E+0001  1.11090783476830E+0001
 2.70500000000000E+0001  1.10114659667015E+0001
 2.70000000000000E+0001  1.12997608780861E+0001
 2.69500000000000E+0001  1.12473596632481E+0001
 2.69000000000000E+0001  1.06394405364990E+0001
 2.68500000000000E+0001  1.09419331699610E+0001
 2.68000000000000E+0001  1.06183134615421E+0001
 2.67500000000000E+0001  1.00739875435829E+0001
 2.67000000000000E+0001  1.04769261032343E+0001
 2.66500000000000E+0001  1.08825146853924E+0001
 2.66000000000000E+0001  1.14785080850124E+0001
 2.65500000000000E+0001  1.13499333560467E+0001
 2.65000000000000E+0001  1.14128728806973E+0001
 2.64500000000000E+0001  1.10958366245031E+0001
 2.64000000000000E+0001  1.09276712834835E+0001
 2.63500000000000E+0001  1.09883889555931E+0001
 2.63000000000000E+0001  1.09532502591610E+0001
 2.62500000000000E+0001  1.05710525661707E+0001
 2.62000000000000E+0001  1.12308066338301E+0001
 2.61500000000000E+0001  1.17353542000055E+0001
 2.61000000000000E+0001  1.10020511746407E+0001
 2.60500000000000E+0001  1.12386406660080E+0001
 2.60000000000000E+0001  1.07081701755524E+0001
 2.59500000000000E+0001  1.10607782602310E+0001
 2.59000000000000E+0001  1.20290690958500E+0001
 2.58500000000000E+0001  1.05667327940464E+0001
 2.58000000000000E+0001  1.15979950129986E+0001
 2.57500000000000E+0001  1.13583611100912E+0001
 2.57000000000000E+0001  1.22958567440510E+0001
 2.56500000000000E+0001  1.07231330722570E+0001
 2.56000000000000E+0001  1.09714262336493E+0001
 2.55500000000000E+0001  1.01536118388176E+0001
 2.55000000000000E+0001  1.05087597370148E+0001
 2.54500000000000E+0001  1.02994094043970E+0001
 2.54000000000000E+0001  1.06208794862032E+0001
 2.53500000000000E+0001  1.06709682196379E+0001
 2.53000000000000E+0001  1.07232535034418E+0001
 2.52500000000000E+0001  1.11091770380735E+0001
 2.52000000000000E+0001  1.13012280464172E+0001
 2.51500000000000E+0001  1.09199585318565E+0001
 2.51000000000000E+0001  1.03940078914165E+0001
 2.50500000000000E+0001  1.04697147607803E+0001
 2.50000000000000E+0001  1.04475132972002E+0001
 2.49500000000000E+0001  1.08390603065491E+0001
 2.49000000000000E+0001  1.09947756826878E+0001
 2.48500000000000E+0001  1.07486638873816E+0001
 2.48000000000000E+0001  1.05068861246109E+0001
 2.47500000000000E+0001  1.07611454427242E+0001
 2.47000000000000E+0001  1.03329514712095E+0001
 2.46500000000000E+0001  1.03964210152626E+0001
 2.46000000000000E+0001  1.02636571824551E+0001
 2.45500000000000E+0001  1.03056277930737E+0001
 2.45000000000000E+0001  9.43354170024395E+0000
 2.44500000000000E+0001  8.62138246744871E+0000
 2.44000000000000E+0001  9.79522684216499E+0000
 2.43500000000000E+0001  9.94682726264000E+0000
 2.43000000000000E+0001  1.00372210741043E+0001
 2.42500000000000E+0001  1.01684935837984E+0001
 2.42000000000000E+0001  9.54543645679951E+0000
 2.41500000000000E+0001  9.96605950593948E+0000
 2.41000000000000E+0001  1.03694834411144E+0001
 2.40500000000000E+0001  9.51848980784416E+0000
 2.40000000000000E+0001  1.00038848817348E+0001
 2.39500000000000E+0001  1.00037157386541E+0001
 2.39000000000000E+0001  9.34893457591534E+0000
 2.38500000000000E+0001  9.33331896364689E+0000
 2.38000000000000E+0001  9.63936270773411E+0000
 2.37500000000000E+0001  8.98031912744045E+0000
 2.37000000000000E+0001  9.43635308742523E+0000
 2.36500000000000E+0001  9.42369405925274E+0000
 2.36000000000000E+0001  9.16182991862297E+0000
 2.35500000000000E+0001  8.53674869239330E+0000
 2.35000000000000E+0001  9.94236145913601E+0000
 2.34500000000000E+0001  9.38297660648823E+0000
 2.34000000000000E+0001  9.09821292757988E+0000
 2.33500000000000E+0001  9.54516921937466E+0000
 2.33000000000000E+0001  9.25335679948330E+0000
 2.32500000000000E+0001  9.63417226076126E+0000
 2.32000000000000E+0001  9.55667658150196E+0000
 2.31500000000000E+0001  8.89980676770210E+0000
 2.31000000000000E+0001  8.77110518515110E+0000
 2.30500000000000E+0001  9.45470492541790E+0000
 2.30000000000000E+0001  9.41811312735081E+0000
 2.29500000000000E+0001  9.11678512394428E+0000
 2.29000000000000E+0001  8.61523652076721E+0000
 2.28500000000000E+0001  8.95992236584425E+0000
 2.28000000000000E+0001  8.63532711565495E+0000
 2.27500000000000E+0001  8.49900211393833E+0000
 2.27000000000000E+0001  8.97863061726093E+0000
 2.26500000000000E+0001  9.59437462687492E+0000
 2.26000000000000E+0001  8.60598428547382E+0000
 2.25500000000000E+0001  8.08241792023182E+0000
 2.25000000000000E+0001  8.53710988163948E+0000
 2.24500000000000E+0001  8.75669406354427E+0000
 2.24000000000000E+0001  8.91670919954777E+0000
 2.23500000000000E+0001  8.16469657421112E+0000
 2.23000000000000E+0001  8.44261281192303E+0000
 2.22500000000000E+0001  8.85897478461266E+0000
 2.22000000000000E+0001  8.62632039189339E+0000
 2.21500000000000E+0001  8.86538501083851E+0000
 2.21000000000000E+0001  8.44893196225166E+0000
 2.20500000000000E+0001  8.45508342981338E+0000
 2.20000000000000E+0001  8.97998970001936E+0000
 2.19500000000000E+0001  9.19974225759506E+0000
 2.19000000000000E+0001  8.66719137132168E+0000
 2.18500000000000E+0001  8.17339116334915E+0000
 2.18000000000000E+0001  8.20668366551399E+0000
 2.17500000000000E+0001  7.98405358195305E+0000
 2.17000000000000E+0001  8.09982563555241E+0000
 2.16500000000000E+0001  8.18302401900291E+0000
 2.16000000000000E+0001  8.59602683782578E+0000
 2.15500000000000E+0001  8.36223006248474E+0000
 2.15000000000000E+0001  8.55986344814301E+0000
 2.14500000000000E+0001  7.71712197363377E+0000
 2.14000000000000E+0001  7.78861905634403E+0000
 2.13500000000000E+0001  8.41772928833961E+0000
 2.13000000000000E+0001  8.47778202593327E+0000
 2.12500000000000E+0001  8.15824544429779E+0000
 2.12000000000000E+0001  7.43545168638229E+0000
 2.11500000000000E+0001  9.14820578694344E+0000
 2.11000000000000E+0001  8.72244390845299E+0000
 2.10500000000000E+0001  8.31378101557493E+0000
 2.10000000000000E+0001  7.70244032144547E+0000
 2.09500000000000E+0001  8.12517751753330E+0000
 2.09000000000000E+0001  8.25229020416737E+0000
 2.08500000000000E+0001  8.53698050975800E+0000
 2.08000000000000E+0001  8.41514445841312E+0000
 2.07500000000000E+0001  7.89585080742836E+0000
 2.07000000000000E+0001  8.02864420413971E+0000
 2.06500000000000E+0001  8.08720198273659E+0000
 2.06000000000000E+0001  8.00521819293499E+0000
 2.05500000000000E+0001  8.55525681376457E+0000
 2.05000000000000E+0001  8.46323047578335E+0000
 2.04500000000000E+0001  8.28093108534813E+0000
 2.04000000000000E+0001  8.50401006639004E+0000
 2.03500000000000E+0001  8.39185813814402E+0000
 2.03000000000000E+0001  8.61835126578808E+0000
 2.02500000000000E+0001  8.59840826690197E+0000
 2.02000000000000E+0001  8.14352890849113E+0000
 2.01500000000000E+0001  8.75396913290024E+0000
 2.01000000000000E+0001  8.39779621362686E+0000
 2.00500000000000E+0001  8.38239862024784E+0000
 2.00000000000000E+0001  8.24327322840691E+0000
 1.99500000000000E+0001  8.58756048977375E+0000
 1.99000000000000E+0001  9.02246674895287E+0000
 1.98500000000000E+0001  8.59952576458454E+0000
 1.98000000000000E+0001  9.21210695803165E+0000
 1.97500000000000E+0001  9.04542340338230E+0000
 1.97000000000000E+0001  8.44306609034538E+0000
 1.96500000000000E+0001  8.44987952709198E+0000
 1.96000000000000E+0001  9.29573847353458E+0000
 1.95500000000000E+0001  9.36201331019402E+0000
 1.95000000000000E+0001  8.31170217692852E+0000
 1.94500000000000E+0001  8.61636024713516E+0000
 1.94000000000000E+0001  9.18169988691807E+0000
 1.93500000000000E+0001  9.18478980660439E+0000
 1.93000000000000E+0001  8.88068844377994E+0000
 1.92500000000000E+0001  8.51843087375164E+0000
 1.92000000000000E+0001  9.19888947904110E+0000
 1.91500000000000E+0001  8.58519482612610E+0000
 1.91000000000000E+0001  9.39409309625626E+0000
 1.90500000000000E+0001  8.93641778826714E+0000
 1.90000000000000E+0001  9.22518916428089E+0000
 1.89500000000000E+0001  8.97589688003063E+0000
 1.89000000000000E+0001  9.97324268519878E+0000
 1.88500000000000E+0001  9.53591994941235E+0000
 1.88000000000000E+0001  9.69244538247585E+0000
 1.87500000000000E+0001  9.57314185798168E+0000
 1.87000000000000E+0001  9.76415565609932E+0000
 1.86500000000000E+0001  9.27566860616207E+0000
 1.86000000000000E+0001  9.25791388750076E+0000
 1.85500000000000E+0001  9.40527594089508E+0000
 1.85000000000000E+0001  9.35333971679211E+0000
 1.84500000000000E+0001  9.49349679052830E+0000
 1.84000000000000E+0001  9.72604808211327E+0000
 1.83500000000000E+0001  9.04486763477325E+0000
 1.83000000000000E+0001  8.97100172936916E+0000
 1.82500000000000E+0001  9.56662656366825E+0000
 1.82000000000000E+0001  1.00517506748438E+0001
 1.81500000000000E+0001  9.96195416152477E+0000
 1.81000000000000E+0001  9.34358564019203E+0000
 1.80500000000000E+0001  9.69321268796921E+0000
 1.80000000000000E+0001  9.55096168816090E+0000
 1.79500000000000E+0001  9.02890075743198E+0000
 1.79000000000000E+0001  9.12866295874119E+0000
 1.78500000000000E+0001  9.46270136535168E+0000
 1.78000000000000E+0001  9.44699007272720E+0000
 1.77500000000000E+0001  9.90359619259834E+0000
 1.77000000000000E+0001  9.77783502638340E+0000
 1.76500000000000E+0001  1.02758987993002E+0001
 1.76000000000000E+0001  9.57503800094128E+0000
 1.75500000000000E+0001  9.62216261029244E+0000
 1.75000000000000E+0001  9.53886359930038E+0000
 1.74500000000000E+0001  9.74411927163601E+0000
 1.74000000000000E+0001  9.93262262642384E+0000
 1.73500000000000E+0001  9.71337381005287E+0000
 1.73000000000000E+0001  9.14323149621487E+0000
 1.72500000000000E+0001  9.62514625489712E+0000
 1.72000000000000E+0001  1.00131248086691E+0001
 1.71500000000000E+0001  9.12966877222061E+0000
 1.71000000000000E+0001  9.33277927339077E+0000
 1.70500000000000E+0001  9.05359345674515E+0000
 1.70000000000000E+0001  9.77046972513199E+0000
 1.69500000000000E+0001  9.77041804790497E+0000
 1.69000000000000E+0001  9.77563902735710E+0000
 1.68500000000000E+0001  1.03379771709442E+0001
 1.68000000000000E+0001  9.16330926120281E+0000
 1.67500000000000E+0001  9.37819987535477E+0000
 1.67000000000000E+0001  9.62152101099491E+0000
 1.66500000000000E+0001  9.63662937283516E+0000
 1.66000000000000E+0001  9.59179197251797E+0000
 1.65500000000000E+0001  1.03447485268116E+0001
 1.65000000000000E+0001  9.23086288571358E+0000
 1.64500000000000E+0001  1.04691742658615E+0001
 1.64000000000000E+0001  1.02086325585842E+0001
 1.63500000000000E+0001  9.79961004853249E+0000
 1.63000000000000E+0001  9.77114184200764E+0000
 1.62500000000000E+0001  1.01837590783834E+0001
 1.62000000000000E+0001  1.03812818229198E+0001
 1.61500000000000E+0001  9.64114250242710E+0000
 1.61000000000000E+0001  1.01951294690371E+0001
 1.60500000000000E+0001  1.01841834634542E+0001
 1.60000000000000E+0001  1.04210342466831E+0001
 1.59500000000000E+0001  1.08758455812931E+0001
 1.59000000000000E+0001  1.07115318924189E+0001
 1.58500000000000E+0001  1.08636468946934E+0001
 1.58000000000000E+0001  1.03710966706276E+0001
 1.57500000000000E+0001  1.03625331223011E+0001
 1.57000000000000E+0001  1.05557750463486E+0001
 1.56500000000000E+0001  1.08607717156410E+0001
 1.56000000000000E+0001  1.03530473560095E+0001
 1.55500000000000E+0001  1.08886592239141E+0001
 1.55000000000000E+0001  1.06493735313416E+0001
 1.54500000000000E+0001  1.03813866525888E+0001
 1.54000000000000E+0001  1.10008789896965E+0001
 1.53500000000000E+0001  1.12920604944229E+0001
 1.53000000000000E+0001  1.18691729307175E+0001
 1.52500000000000E+0001  1.14807606041431E+0001
 1.52000000000000E+0001  1.13972787857056E+0001
 1.51500000000000E+0001  1.17137291729450E+0001
 1.51000000000000E+0001  1.11568761169910E+0001
 1.50500000000000E+0001  1.17904469072819E+0001
 1.50000000000000E+0001  1.16849264055490E+0001
 1.49500000000000E+0001  1.17099902927876E+0001
 1.49000000000000E+0001  1.14342663884163E+0001
 1.48500000000000E+0001  1.11209540367126E+0001
 1.48000000000000E+0001  1.20101841390133E+0001
 1.47500000000000E+0001  1.16928580105305E+0001
 1.47000000000000E+0001  1.14036698192358E+0001
 1.46500000000000E+0001  1.17401659041643E+0001
 1.46000000000000E+0001  1.17538829445839E+0001
 1.45500000000000E+0001  1.14894629269838E+0001
 1.45000000000000E+0001  1.13061614185572E+0001
 1.44500000000000E+0001  1.18122479170561E+0001
 1.44000000000000E+0001  1.22061803638935E+0001
 1.43500000000000E+0001  1.21883682161570E+0001
 1.43000000000000E+0001  1.25118284821510E+0001
 1.42500000000000E+0001  1.20822898745537E+0001
 1.42000000000000E+0001  1.12922067940235E+0001
 1.41500000000000E+0001  1.14220094382763E+0001
 1.41000000000000E+0001  1.07707263678312E+0001
 1.40500000000000E+0001  1.15863917171955E+0001
 1.40000000000000E+0001  1.12511383295059E+0001
 1.39500000000000E+0001  1.20685918331146E+0001
 1.39000000000000E+0001  1.18307404667139E+0001
 1.38500000000000E+0001  1.18840997219086E+0001
 1.38000000000000E+0001  1.15641385614872E+0001
 1.37500000000000E+0001  1.19955631643534E+0001
 1.37000000000000E+0001  1.15257674008608E+0001
 1.36500000000000E+0001  1.16170410811901E+0001
 1.36000000000000E+0001  1.19906587600708E+0001
 1.35500000000000E+0001  1.25365617871284E+0001
 1.35000000000000E+0001  1.27940728068352E+0001
 1.34500000000000E+0001  1.19785583615303E+0001
 1.34000000000000E+0001  1.21265044212341E+0001
 1.33500000000000E+0001  1.21225996315479E+0001
 1.33000000000000E+0001  1.21922207176685E+0001
 1.32500000000000E+0001  1.19782598912716E+0001
 1.32000000000000E+0001  1.18979166597128E+0001
 1.31500000000000E+0001  1.22986755669117E+0001
 1.31000000000000E+0001  1.30535880029202E+0001
 1.30500000000000E+0001  1.24254073500633E+0001
 1.30000000000000E+0001  1.26705194711685E+0001
 1.29500000000000E+0001  1.24227285385132E+0001
 1.29000000000000E+0001  1.25624155402184E+0001
 1.28500000000000E+0001  1.22609877884388E+0001
 1.28000000000000E+0001  1.28043689131737E+0001
 1.27500000000000E+0001  1.31046330332756E+0001
 1.27000000000000E+0001  1.29734080731869E+0001
 1.26500000000000E+0001  1.31030713617802E+0001
 1.26000000000000E+0001  1.28416260778904E+0001
 1.25500000000000E+0001  1.32313281595707E+0001
 1.25000000000000E+0001  1.31856341511011E+0001
 1.24500000000000E+0001  1.26819363534451E+0001
 1.24000000000000E+0001  1.31543101370335E+0001
 1.23500000000000E+0001  1.37665425837040E+0001
 1.23000000000000E+0001  1.38649082183838E+0001
 1.22500000000000E+0001  1.43242655992508E+0001
 1.22000000000000E+0001  1.43708932995796E+0001
 1.21500000000000E+0001  1.34852819442749E+0001
 1.21000000000000E+0001  1.33186932802200E+0001
 1.20500000000000E+0001  1.50192370712757E+0001
 1.20000000000000E+0001  1.49244539141655E+0001
 1.19500000000000E+0001  1.44372800588608E+0001
 1.19000000000000E+0001  1.51638031899929E+0001
 1.18500000000000E+0001  1.55840347111225E+0001
 1.18000000000000E+0001  1.43976720571518E+0001
 1.17500000000000E+0001  1.44107477366924E+0001
 1.17000000000000E+0001  1.50402368903160E+0001
 1.16500000000000E+0001  1.57899162471294E+0001
 1.16000000000000E+0001  1.58035821318626E+0001
 1.15500000000000E+0001  1.57427661418915E+0001
 1.15000000000000E+0001  1.55879846513271E+0001
 1.14500000000000E+0001  1.55413129031658E+0001
 1.14000000000000E+0001  1.57885852754116E+0001
 1.13500000000000E+0001  1.54910374581814E+0001
 1.13000000000000E+0001  1.58600949645042E+0001
 1.12500000000000E+0001  1.49859046936035E+0001
 1.12000000000000E+0001  1.60114032030106E+0001
 1.11500000000000E+0001  1.65904226005077E+0001
 1.11000000000000E+0001  1.71554369330406E+0001
 1.10500000000000E+0001  1.76321713924408E+0001
 1.10000000000000E+0001  1.58067362010479E+0001
 1.09500000000000E+0001  1.74553301930428E+0001
 1.09000000000000E+0001  1.62798300087452E+0001
 1.08500000000000E+0001  1.75704513788223E+0001
 1.08000000000000E+0001  1.72886415123940E+0001
 1.07500000000000E+0001  1.73694829046726E+0001
 1.07000000000000E+0001  1.76689299345016E+0001
 1.06500000000000E+0001  1.75039118826389E+0001
 1.06000000000000E+0001  1.79987386167049E+0001
 1.05500000000000E+0001  1.80536422133446E+0001
 1.05000000000000E+0001  1.77647880315781E+0001
 1.04500000000000E+0001  1.86836274564266E+0001
 1.04000000000000E+0001  1.83061882257462E+0001
 1.03500000000000E+0001  1.77149179279804E+0001
 1.03000000000000E+0001  1.90144900083542E+0001
 1.02500000000000E+0001  1.95578513443470E+0001
 1.02000000000000E+0001  1.84189157485962E+0001
 1.01500000000000E+0001  1.81722880601883E+0001
 1.01000000000000E+0001  1.97937917709351E+0001
 1.00500000000000E+0001  1.93180917799473E+0001
 1.00000000000000E+0001  1.95281023681164E+0001
 9.94999999999999E+0000  1.94352709949017E+0001
 9.90000000000001E+0000  1.94201321303844E+0001
 9.84999999999999E+0000  1.95472367703915E+0001
 9.80000000000001E+0000  1.93848569691181E+0001
 9.75000000000000E+0000  1.90487762093544E+0001
 9.69999999999999E+0000  1.91235876679420E+0001
 9.65000000000001E+0000  1.87117578685284E+0001
 9.59999999999999E+0000  1.92070104777813E+0001
 9.55000000000001E+0000  1.95212607383728E+0001
 9.50000000000000E+0000  1.93058627545834E+0001
 9.44999999999999E+0000  1.93812817931175E+0001
 9.40000000000001E+0000  1.89465541243553E+0001
 9.34999999999999E+0000  1.85237895548344E+0001
 9.30000000000001E+0000  1.93828343153000E+0001
 9.25000000000000E+0000  1.84961279630661E+0001
 9.19999999999999E+0000  1.82097516059875E+0001
 9.15000000000001E+0000  1.95536533594131E+0001
 9.09999999999999E+0000  1.85348145067692E+0001
 9.05000000000001E+0000  1.93973247110844E+0001
 9.00000000000000E+0000  1.78408630490303E+0001
 8.94999999999999E+0000  1.76788657307625E+0001
 8.90000000000001E+0000  1.79903477132320E+0001
 8.84999999999999E+0000  1.79790832698345E+0001
 8.80000000000001E+0000  1.81438825428486E+0001
 8.75000000000000E+0000  1.82609204649925E+0001
 8.69999999999999E+0000  1.82706337571144E+0001
 8.65000000000001E+0000  1.81141285300255E+0001
 8.59999999999999E+0000  1.74443281590939E+0001
 8.55000000000001E+0000  1.78258050680161E+0001
 8.50000000000000E+0000  1.77089067697525E+0001
 8.44999999999999E+0000  1.65393877327442E+0001
 8.40000000000001E+0000  1.71828822195530E+0001
 8.34999999999999E+0000  1.62707374691963E+0001
 8.30000000000001E+0000  1.75003835260868E+0001
 8.25000000000000E+0000  1.75249607563019E+0001
 8.19999999999999E+0000  1.61384050250053E+0001
 8.15000000000001E+0000  1.65001445710659E+0001
 8.09999999999999E+0000  1.71113930642605E+0001
 8.05000000000001E+0000  1.65267817378044E+0001
 8.00000000000000E+0000  1.69116657972336E+0001
 7.94999999999999E+0000  1.72767367660999E+0001
 7.90000000000001E+0000  1.70026326477528E+0001
 7.84999999999999E+0000  1.72534478008747E+0001
 7.80000000000001E+0000  1.69722326397896E+0001
 7.75000000000000E+0000  1.74595516622066E+0001
 7.69999999999999E+0000  1.73882828354836E+0001
 7.65000000000001E+0000  1.72911061942577E+0001
 7.59999999999999E+0000  1.66508898735046E+0001
 7.55000000000001E+0000  1.54367496073246E+0001
 7.50000000000000E+0000  1.70169199109077E+0001
 7.44999999999999E+0000  1.65185911357403E+0001
 7.40000000000001E+0000  1.67536123394966E+0001
 7.34999999999999E+0000  1.63780485391617E+0001
 7.30000000000001E+0000  1.71512998640537E+0001
 7.25000000000000E+0000  1.73358839154243E+0001
 7.19999999999999E+0000  1.70707835853100E+0001
 7.15000000000001E+0000  1.73061714768410E+0001
 7.09999999999999E+0000  1.73424574136734E+0001
 7.05000000000001E+0000  1.67249752581120E+0001
 7.00000000000000E+0000  1.81223033666611E+0001
 6.94999999999999E+0000  1.70023302137852E+0001
 6.90000000000001E+0000  1.74434532225132E+0001
 6.84999999999999E+0000  1.77417818009853E+0001
 6.80000000000001E+0000  1.71158600449562E+0001
 6.75000000000000E+0000  1.72499479949474E+0001
 6.69999999999999E+0000  1.74630649983883E+0001
 6.65000000000001E+0000  1.71221415102482E+0001
 6.59999999999999E+0000  1.66943780779839E+0001
 6.55000000000001E+0000  1.71110405325890E+0001
 6.50000000000000E+0000  1.76474736630917E+0001
 6.44999999999999E+0000  1.68862166106701E+0001
 6.40000000000001E+0000  1.60406951606274E+0001
 6.34999999999999E+0000  1.71483637988567E+0001
 6.30000000000001E+0000  1.69902053475380E+0001
 6.25000000000000E+0000  1.82541356980801E+0001
 6.19999999999999E+0000  1.72321949005127E+0001
 6.15000000000001E+0000  1.73985575139523E+0001
 6.09999999999999E+0000  1.68892676532269E+0001
 6.05000000000001E+0000  1.75374051034451E+0001
 6.00000000000000E+0000  1.80291229486465E+0001
 5.94999999999999E+0000  1.75774530172348E+0001
 5.90000000000001E+0000  1.76799812018871E+0001
 5.84999999999999E+0000  1.69751201868057E+0001
 5.80000000000001E+0000  1.75957649052143E+0001
 5.75000000000000E+0000  1.85199985802174E+0001
 5.69999999999999E+0000  1.95465920865536E+0001
 5.65000000000001E+0000  1.90729046463966E+0001
 5.59999999999999E+0000  1.96602346897125E+0001
 5.55000000000001E+0000  1.88225857615471E+0001
 5.50000000000000E+0000  2.05340787768364E+0001
 5.44999999999999E+0000  2.00960648059845E+0001
 5.40000000000001E+0000  1.96138764619827E+0001
 5.34999999999999E+0000  2.09591511487961E+0001
 5.30000000000001E+0000  2.02718817591667E+0001
 5.25000000000000E+0000  2.10700225830078E+0001
 5.19999999999999E+0000  2.13338615298271E+0001
 5.15000000000001E+0000  2.19137384295464E+0001
 5.09999999999999E+0000  2.12298725247383E+0001
 5.05000000000001E+0000  2.16047861576080E+0001
 5.00000000000000E+0000  2.23658508658409E+0001
 4.94999999999999E+0000  2.23193137049675E+0001
 4.90000000000001E+0000  2.24993093013763E+0001
 4.84999999999999E+0000  2.10940263271332E+0001
 4.80000000000001E+0000  2.16688901782036E+0001
 4.75000000000000E+0000  2.27660238444805E+0001
 4.69999999999999E+0000  2.20441883802414E+0001
 4.65000000000001E+0000  2.18421701192856E+0001
 4.59999999999999E+0000  2.15174735188484E+0001
 4.55000000000001E+0000  2.15503600239754E+0001
 4.50000000000000E+0000  2.19793345332146E+0001
 4.44999999999999E+0000  2.14663675427437E+0001
 4.40000000000001E+0000  2.01949470639229E+0001
 4.34999999999999E+0000  2.14661260843277E+0001
 4.30000000000001E+0000  2.18224252462387E+0001
 4.25000000000000E+0000  2.08922048211098E+0001
 4.19999999999999E+0000  1.94971700608730E+0001
 4.15000000000001E+0000  1.90357291698456E+0001
 4.09999999999999E+0000  1.88556397557259E+0001
 4.05000000000001E+0000  1.85456609129906E+0001
 4.00000000000000E+0000  1.91188839375973E+0001
 3.94999999999999E+0000  1.80279953777790E+0001
 3.90000000000001E+0000  1.72802604436874E+0001
 3.84999999999999E+0000  1.67777418792248E+0001
 3.80000000000001E+0000  1.70896115303040E+0001
 3.75000000000000E+0000  1.74386584460735E+0001
 3.69999999999999E+0000  1.62650455534458E+0001
 3.65000000000001E+0000  1.66239734888077E+0001
 3.59999999999999E+0000  1.60082225799561E+0001
 3.55000000000001E+0000  1.51664308309555E+0001
 3.50000000000000E+0000  1.51922931373119E+0001
 3.44999999999999E+0000  1.50659359395504E+0001
 3.40000000000001E+0000  1.46616679131985E+0001
 3.34999999999999E+0000  1.44677096009254E+0001
 3.30000000000001E+0000  1.33563699424267E+0001
 3.25000000000000E+0000  1.36250044107437E+0001
 3.19999999999999E+0000  1.35034562349319E+0001
 3.15000000000001E+0000  1.33886775374413E+0001
 3.09999999999999E+0000  1.41671561300755E+0001
 3.05000000000001E+0000  1.32373185753822E+0001
 3.00000000000000E+0000  1.26435871571302E+0001
 2.94999999999999E+0000  1.25918420553207E+0001
 2.90000000000001E+0000  1.15285014808178E+0001
 2.84999999999999E+0000  1.09429092705250E+0001
 2.80000000000001E+0000  1.11742942333221E+0001
 2.75000000000000E+0000  1.06995181888342E+0001
 2.69999999999999E+0000  9.81442762911320E+0000
 2.65000000000001E+0000  1.03399683237076E+0001
 2.59999999999999E+0000  9.08768182992935E+0000
 2.55000000000001E+0000  8.69372153282166E+0000
 2.50000000000000E+0000  8.51631274819374E+0000
 2.44999999999999E+0000  8.59976989030838E+0000
 2.40000000000001E+0000  8.24401436746120E+0000
 2.34999999999999E+0000  8.40709425508976E+0000
 2.30000000000001E+0000  7.31278173625469E+0000
 2.25000000000000E+0000  7.09669955074787E+0000
 2.19999999999999E+0000  7.24530314654112E+0000
 2.15000000000001E+0000  6.88794435560703E+0000
 2.09999999999999E+0000  6.38948951661587E+0000
 2.05000000000001E+0000  6.35426555573940E+0000
 2.00000000000000E+0000  6.20935475081205E+0000
 1.94999999999999E+0000  6.36553696542978E+0000
 1.90000000000001E+0000  5.24690928310156E+0000
 1.84999999999999E+0000  5.35689964890480E+0000
 1.80000000000001E+0000  4.71890415251255E+0000
 1.75000000000000E+0000  4.14356433972716E+0000
 1.69999999999999E+0000  4.56692368537188E+0000
 1.65000000000001E+0000  4.41570233553648E+0000
 1.59999999999999E+0000  3.89203862659633E+0000
 1.55000000000001E+0000  3.49320599436760E+0000
 1.50000000000000E+0000  3.39678052440286E+0000
 1.44999999999999E+0000  3.63307943195105E+0000
 1.40000000000001E+0000  3.40557938814163E+0000
 1.34999999999999E+0000  3.55509496852756E+0000
 1.30000000000001E+0000  2.95443803071976E+0000
 1.25000000000000E+0000  2.85779825411737E+0000
 1.19999999999999E+0000  2.64073713310063E+0000
 1.15000000000001E+0000  2.82396821305156E+0000
 1.09999999999999E+0000  2.46967333368957E+0000
 1.05000000000001E+0000  2.22391482489184E+0000
 1.00000000000000E+0000  2.34875976666808E+0000
 9.49999999999989E-0001  2.25643789209425E+0000
 9.00000000000006E-0001  2.15778778772801E+0000
 8.49999999999994E-0001  1.95192191191018E+0000
 8.00000000000011E-0001  2.17155119031668E+0000
 7.50000000000000E-0001  2.15384185221046E+0000
 6.99999999999989E-0001  1.84835944604129E+0000
 6.50000000000006E-0001  1.54949468327686E+0000
 5.99999999999994E-0001  1.40104686468840E+0000
 5.50000000000011E-0001  1.60339205851778E+0000
 5.00000000000000E-0001  1.47766396659426E+0000
 4.49999999999989E-0001  1.42086111893877E+0000
 4.00000000000006E-0001  1.63642922881991E+0000
 3.49999999999994E-0001  1.51403080881573E+0000
 3.00000000000011E-0001  1.37549687176943E+0000
 2.50000000000000E-0001  1.42324045486748E+0000
 1.99999999999989E-0001  1.29373353114352E+0000
 1.50000000000006E-0001  1.53043087571859E+0000
 9.99999999999943E-0002  1.36447413312271E+0000
 5.00000000000114E-0002  1.16822776151821E+0000
 0.00000000000000E+0000  1.29853950021788E+0000
-5.00000000000114E-0002  1.34612371912226E+0000
-9.99999999999943E-0002  1.12058448512107E+0000
-1.50000000000006E-0001  1.05952745117247E+0000
-1.99999999999989E-0001  1.13061242457479E+0000
-2.50000000000000E-0001  1.54482111707330E+0000
-3.00000000000011E-0001  1.19787215860561E+0000
-3.49999999999994E-0001  1.03226477908902E+0000
-4.00000000000006E-0001  1.02475573495030E+0000
-4.49999999999989E-0001  1.41809524712153E+0000
-5.00000000000000E-0001  1.31969912862405E+0000
-5.50000000000011E-0001  1.15408230011235E+0000
-5.99999999999994E-0001  1.03936011297628E+0000
-6.50000000000006E-0001  1.14987367112190E+0000
-6.99999999999989E-0001  1.22732763458043E+0000
-7.50000000000000E-0001  1.07104602747131E+0000
-8.00000000000011E-0001  1.14709051442333E+0000
-8.49999999999994E-0001  1.28884298726916E+0000
-9.00000000000006E-0001  1.13919413927943E+0000
-9.49999999999989E-0001  1.31254753423855E+0000
-1.00000000000000E+0000  1.14902118826285E+0000
-1.05000000000001E+0000  1.10136376530863E+0000
-1.09999999999999E+0000  1.30016484088264E+0000
-1.15000000000001E+0000  1.12455921201035E+0000
-1.19999999999999E+0000  1.56450865836814E+0000
-1.25000000000000E+0000  1.25788557564374E+0000
-1.30000000000001E+0000  1.37297896482050E+0000
-1.34999999999999E+0000  1.08866838458925E+0000
-1.40000000000001E+0000  1.28160042408854E+0000
-1.44999999999999E+0000  1.12737305741757E+0000
-1.50000000000000E+0000  1.24534183647484E+0000
-1.55000000000001E+0000  1.30504631903023E+0000
-1.59999999999999E+0000  1.47756301937625E+0000
-1.65000000000001E+0000  1.37749144155532E+0000
-1.69999999999999E+0000  1.11494312621653E+0000
-1.75000000000000E+0000  1.07778867916204E+0000
-1.80000000000001E+0000  1.14147094124928E+0000
-1.84999999999999E+0000  1.32295485120267E+0000
-1.90000000000001E+0000  1.11282023205422E+0000
-1.94999999999999E+0000  1.25283331889659E+0000
-2.00000000000000E+0000  1.24529280234128E+0000
-2.05000000000001E+0000  1.37101367674768E+0000
-2.09999999999999E+0000  1.14659570285585E+0000
-2.15000000000001E+0000  1.10654846811667E+0000
-2.19999999999999E+0000  1.15992909402121E+0000
-2.25000000000000E+0000  1.05418811924756E+0000
-2.30000000000001E+0000  1.22562610218301E+0000
-2.34999999999999E+0000  1.29328590503428E+0000
-2.40000000000001E+0000  9.59731942275539E-0001
-2.44999999999999E+0000  1.22161819459870E+0000
-2.50000000000000E+0000  1.31230692099780E+0000
-2.55000000000001E+0000  1.27243292517960E+0000
-2.59999999999999E+0000  1.18772930395789E+0000
-2.65000000000001E+0000  1.34812312107533E+0000
-2.69999999999999E+0000  1.16593710798770E+0000
-2.75000000000000E+0000  1.01671150000766E+0000
-2.80000000000001E+0000  1.09817321924493E+0000
-2.84999999999999E+0000  1.16047036508098E+0000
-2.90000000000001E+0000  1.25493679488136E+0000
-2.94999999999999E+0000  1.18766372243408E+0000
-3.00000000000000E+0000  1.13140042428859E+0000
-3.05000000000001E+0000  1.10354006662965E+0000
-3.09999999999999E+0000  1.11107247369364E+0000
-3.15000000000001E+0000  9.86362970899790E-0001
-3.19999999999999E+0000  1.08688248973340E+0000
-3.25000000000000E+0000  1.17261616420001E+0000
-3.30000000000001E+0000  9.86690749763511E-0001
-3.34999999999999E+0000  1.02970686782646E+0000
-3.40000000000001E+0000  1.12759620952420E+0000
-3.44999999999999E+0000  1.17359684710391E+0000
-3.50000000000000E+0000  1.41799050522968E+0000
-3.55000000000001E+0000  1.12113062711433E+0000
-3.59999999999999E+0000  1.10797521937639E+0000
-3.65000000000001E+0000  1.13344687130302E+0000
-3.69999999999999E+0000  1.04094715346582E+0000
-3.75000000000000E+0000  9.21229484491050E-0001
-3.80000000000001E+0000  1.11685673636384E+0000
-3.84999999999999E+0000  1.43004953931086E+0000
-3.90000000000001E+0000  1.21810329379514E+0000
-3.94999999999999E+0000  1.12030262965709E+0000
-4.00000000000000E+0000  1.03126258240081E+0000
-4.05000000000001E+0000  1.17628724756651E+0000
-4.09999999999999E+0000  1.52537125570234E+0000
-4.15000000000001E+0000  1.43832017388195E+0000
-4.19999999999999E+0000  1.43478223285638E+0000
-4.25000000000000E+0000  1.26823988044634E+0000
-4.30000000000001E+0000  1.11074352171272E+0000
-4.34999999999999E+0000  1.31295866984874E+0000
-4.40000000000001E+0000  1.24164714384824E+0000
-4.44999999999999E+0000  1.33002313808538E+0000
-4.50000000000000E+0000  1.32528025005013E+0000
-4.55000000000001E+0000  1.00247743725777E+0000
-4.59999999999999E+0000  1.31076561287045E+0000
-4.65000000000001E+0000  9.74154954776168E-0001
-4.69999999999999E+0000  9.59971545496956E-0001
-4.75000000000000E+0000  9.27616658154875E-0001
-4.80000000000001E+0000  1.08797375904396E+0000
-4.84999999999999E+0000  1.15706132655032E+0000
-4.90000000000001E+0000  1.10891893692315E+0000
-4.94999999999999E+0000  1.14524831064045E+0000
-5.00000000000000E+0000  1.11592403054237E+0000
-5.05000000000001E+0000  1.20826352341101E+0000
-5.09999999999999E+0000  1.19170355383540E+0000
-5.15000000000001E+0000  1.06169705872890E+0000
-5.19999999999999E+0000  9.86904908902943E-0001
-5.25000000000000E+0000  1.26606961898506E+0000
-5.30000000000001E+0000  1.06082084611990E+0000
-5.34999999999999E+0000  1.06368352613208E+0000
-5.40000000000001E+0000  8.20541234337725E-0001
-5.44999999999999E+0000  1.18129247310571E+0000
-5.50000000000000E+0000  9.68489029910415E-0001
-5.55000000000001E+0000  1.30452485382557E+0000
-5.59999999999999E+0000  1.20296008279547E+0000
-5.65000000000001E+0000  1.09725405904464E+0000
-5.69999999999999E+0000  1.14256590686273E+0000
-5.75000000000000E+0000  1.14958718093112E+0000
-5.80000000000001E+0000  1.11456485162489E+0000
-5.84999999999999E+0000  1.26127152476693E+0000
-5.90000000000001E+0000  1.18734214548022E+0000
-5.94999999999999E+0000  1.28130805701949E+0000
-6.00000000000000E+0000  1.35902316076681E+0000
-6.05000000000001E+0000  1.31667932402343E+0000
-6.09999999999999E+0000  1.00221122289076E+0000
-6.15000000000001E+0000  1.03232538700104E+0000
-6.19999999999999E+0000  1.15989630832337E+0000
-6.25000000000000E+0000  1.22125123906881E+0000
-6.30000000000001E+0000  1.09465265355539E+0000
-6.34999999999999E+0000  1.15826838064095E+0000
-6.40000000000001E+0000  1.11484149657190E+0000
-6.44999999999999E+0000  1.18306793319061E+0000
-6.50000000000000E+0000  1.36962727364153E+0000
-6.55000000000001E+0000  1.41207177308388E+0000
-6.59999999999999E+0000  1.06292497226968E+0000
-6.65000000000001E+0000  1.29818071797490E+0000
-6.69999999999999E+0000  1.03656685887836E+0000
-6.75000000000000E+0000  1.13971169106662E+0000
-6.80000000000001E+0000  9.15717571042478E-0001
-6.84999999999999E+0000  9.79644203558564E-0001
-6.90000000000001E+0000  1.02236630313564E+0000
-6.94999999999999E+0000  1.67621697252616E+0000
-7.00000000000000E+0000  1.54137310571969E+0000
-7.05000000000001E+0000  1.19835407128630E+0000
-7.09999999999999E+0000  1.04289874993265E+0000
-7.15000000000001E+0000  1.14851271407679E+0000
-7.19999999999999E+0000  1.15408744756132E+0000
-7.25000000000000E+0000  1.26153057417832E+0000
-7.30000000000001E+0000  1.05552907846868E+0000
-7.34999999999999E+0000  1.09141809737775E+0000
-7.40000000000001E+0000  1.17989772465080E+0000
-7.44999999999999E+0000  1.08050710405223E+0000
-7.50000000000000E+0000  9.62916179560125E-0001
-7.55000000000001E+0000  9.24173917155713E-0001
-7.59999999999999E+0000  1.27329061040655E+0000
-7.65000000000001E+0000  1.33915174126741E+0000
-7.69999999999999E+0000  1.32269785739481E+0000
-7.75000000000000E+0000  1.10074800159782E+0000
-7.80000000000001E+0000  8.89738910831511E-0001
-7.84999999999999E+0000  1.31316471612081E+0000
-7.90000000000001E+0000  1.41614315076731E+0000
-7.94999999999999E+0000  1.00825240951963E+0000
-8.00000000000000E+0000  9.94109835941345E-0001
-8.05000000000001E+0000  1.04333486547694E+0000
-8.09999999999999E+0000  9.07318662037142E-0001
-8.15000000000001E+0000  1.35081765707582E+0000
-8.19999999999999E+0000  1.09771187225124E+0000
-8.25000000000000E+0000  1.23582642152905E+0000
-8.30000000000001E+0000  1.27772031631321E+0000
-8.34999999999999E+0000  1.11583073320799E+0000
-8.40000000000001E+0000  1.18705031834543E+0000
-8.44999999999999E+0000  1.38518638210371E+0000
-8.50000000000000E+0000  1.30887723143678E+0000
-8.55000000000001E+0000  1.09816186316311E+0000
-8.59999999999999E+0000  1.22162607242353E+0000
-8.65000000000001E+0000  1.29397213598713E+0000
-8.69999999999999E+0000  9.89716877695173E-0001
-8.75000000000000E+0000  1.38504619989544E+0000
-8.80000000000001E+0000  1.06981269083917E+0000
-8.84999999999999E+0000  1.03363900352269E+0000
-8.90000000000001E+0000  1.18988049868494E+0000
-8.94999999999999E+0000  1.06755334977061E+0000
-9.00000000000000E+0000  1.11862012045458E+0000
-9.05000000000001E+0000  9.76779496762902E-0001
-9.09999999999999E+0000  1.37768686981872E+0000
-9.15000000000001E+0000  1.23887463845313E+0000
-9.19999999999999E+0000  1.14402033999795E+0000
-9.25000000000000E+0000  1.13604848878458E+0000
-9.30000000000001E+0000  1.04181873255766E+0000
-9.34999999999999E+0000  1.26425956841558E+0000
-9.40000000000001E+0000  1.04556625057012E+0000
-9.44999999999999E+0000  1.11421644734219E+0000
-9.50000000000000E+0000  9.85683383594733E-0001
-9.55000000000001E+0000  1.11481200763956E+0000
-9.59999999999999E+0000  1.16947656590492E+0000
-9.65000000000001E+0000  9.99145410954952E-0001
-9.69999999999999E+0000  8.89208726584911E-0001
-9.75000000000000E+0000  1.25969771225937E+0000
-9.80000000000001E+0000  1.10712529160082E+0000
-9.84999999999999E+0000  9.67238613113295E-0001
-9.90000000000001E+0000  1.10219435126055E+0000
-9.94999999999999E+0000  1.13766797375865E+0000
-1.00000000000000E+0001  1.34645439498127E+0000

