[Info]
Number of Regions=0001
Version=1.3.1

[Region 1]
Region Name=O1s
Dimension 1 name=Binding Energy [eV]
Dimension 1 size=301
Dimension 1 scale=540 539.95 539.9 539.85 539.8 539.75 539.7 539.65 539.6 539.55 539.5 539.45 539.4 539.35 539.3 539.25 539.2 539.15 539.1 539.05 539 538.95 538.9 538.85 538.8 538.75 538.7 538.65 538.6 538.55 538.5 538.45 538.4 538.35 538.3 538.25 538.2 538.15 538.1 538.05 538 537.95 537.9 537.85 537.8 537.75 537.7 537.65 537.6 537.55 537.5 537.45 537.4 537.35 537.3 537.25 537.2 537.15 537.1 537.05 537 536.95 536.9 536.85 536.8 536.75 536.7 536.65 536.6 536.55 536.5 536.45 536.4 536.35 536.3 536.25 536.2 536.15 536.1 536.05 536 535.95 535.9 535.85 535.8 535.75 535.7 535.65 535.6 535.55 535.5 535.45 535.4 535.35 535.3 535.25 535.2 535.15 535.1 535.05 535 534.95 534.9 534.85 534.8 534.75 534.7 534.65 534.6 534.55 534.5 534.45 534.4 534.35 534.3 534.25 534.2 534.15 534.1 534.05 534 533.95 533.9 533.85 533.8 533.75 533.7 533.65 533.6 533.55 533.5 533.45 533.4 533.35 533.3 533.25 533.2 533.15 533.1 533.05 533 532.95 532.9 532.85 532.8 532.75 532.7 532.65 532.6 532.55 532.5 532.45 532.4 532.35 532.3 532.25 532.2 532.15 532.1 532.05 532 531.95 531.9 531.85 531.8 531.75 531.7 531.65 531.6 531.55 531.5 531.45 531.4 531.35 531.3 531.25 531.2 531.15 531.1 531.05 531 530.95 530.9 530.85 530.8 530.75 530.7 530.65 530.6 530.55 530.5 530.45 530.4 530.35 530.3 530.25 530.2 530.15 530.1 530.05 530 529.95 529.9 529.85 529.8 529.75 529.7 529.65 529.6 529.55 529.5 529.45 529.4 529.35 529.3 529.25 529.2 529.15 529.1 529.05 529 528.95 528.9 528.85 528.8 528.75 528.7 528.65 528.6 528.55 528.5 528.45 528.4 528.35 528.3 528.25 528.2 528.15 528.1 528.05 528 527.95 527.9 527.85 527.8 527.75 527.7 527.65 527.6 527.55 527.5 527.45 527.4 527.35 527.3 527.25 527.2 527.15 527.1 527.05 527 526.95 526.9 526.85 526.8 526.75 526.7 526.65 526.6 526.55 526.5 526.45 526.4 526.35 526.3 526.25 526.2 526.15 526.1 526.05 526 525.95 525.9 525.85 525.8 525.75 525.7 525.65 525.6 525.55 525.5 525.45 525.4 525.35 525.3 525.25 525.2 525.15 525.1 525.05 525

[Info 1]
Region Name=O1s
Lens Mode=Transmission
Pass Energy=50
Number of Sweeps=10
Excitation Energy=650
Energy Scale=Binding
Acquisition Mode=Swept
Energy Unit=Kinetic
Center Energy=117.5
Low Energy=110
High Energy=125
Energy Step=0.05
Step Time=203
Detector First X-Channel=43
Detector Last X-Channel=659
Detector First Y-Channel=91
Detector Last Y-Channel=398
Number of Slices=1
File=Z:\XPS_data\2023\Mar2023\KIT\Cu-HHTP_0002.txt,.pxt,.ibw
Sequence=D:\old files\data2\data\Cu-HTTP_Mar_23.seq
Spectrum Name=Cu-HHTP__002
Instrument=R3000-6MS014
Location=Scienta
User=AN
Sample=Cu-HHTP
Comments=;
Date=2023-03-08
Time=11:29:33
Time per Spectrum Channel=225.33
DetectorMode=ADC
[Run Mode Information 1]



[Data 1]
 5.40000000000000E+0002  4.09960699081421E+0001
 5.39950000000000E+0002  4.05534062385559E+0001
 5.39900000000000E+0002  4.05583155155182E+0001
 5.39850000000000E+0002  4.22765865325928E+0001
 5.39800000000000E+0002  4.13153760433197E+0001
 5.39750000000000E+0002  4.07526381015778E+0001
 5.39700000000000E+0002  4.13901402950287E+0001
 5.39650000000000E+0002  4.14294567108154E+0001
 5.39600000000000E+0002  4.12950649261475E+0001
 5.39550000000000E+0002  4.13990604877472E+0001
 5.39500000000000E+0002  4.23549146652222E+0001
 5.39450000000000E+0002  4.06962909698486E+0001
 5.39400000000000E+0002  4.31077156066894E+0001
 5.39350000000000E+0002  4.15951569080353E+0001
 5.39300000000000E+0002  4.08428139686585E+0001
 5.39250000000000E+0002  4.13100457191467E+0001
 5.39200000000000E+0002  4.16040172576904E+0001
 5.39150000000000E+0002  4.12885963916779E+0001
 5.39100000000000E+0002  4.22700395584106E+0001
 5.39050000000000E+0002  4.19326727390289E+0001
 5.39000000000000E+0002  4.04184179306030E+0001
 5.38950000000000E+0002  4.02967472076416E+0001
 5.38900000000000E+0002  3.90920834541321E+0001
 5.38850000000000E+0002  4.15350813865662E+0001
 5.38800000000000E+0002  4.01061060428619E+0001
 5.38750000000000E+0002  4.02370705604553E+0001
 5.38700000000000E+0002  4.01356847286224E+0001
 5.38650000000000E+0002  4.27068428993225E+0001
 5.38600000000000E+0002  3.98949735164642E+0001
 5.38550000000000E+0002  4.10756094455719E+0001
 5.38500000000000E+0002  4.03333702087402E+0001
 5.38450000000000E+0002  4.04167821407318E+0001
 5.38400000000000E+0002  4.18448190689087E+0001
 5.38350000000000E+0002  4.01530282497406E+0001
 5.38300000000000E+0002  4.22852375507355E+0001
 5.38250000000000E+0002  4.14482851028442E+0001
 5.38200000000000E+0002  4.14087579250336E+0001
 5.38150000000000E+0002  4.14693021774292E+0001
 5.38100000000000E+0002  4.03932187557220E+0001
 5.38050000000000E+0002  4.21293826103210E+0001
 5.38000000000000E+0002  4.10259094238281E+0001
 5.37950000000000E+0002  4.23300180435181E+0001
 5.37900000000000E+0002  4.24004223346710E+0001
 5.37850000000000E+0002  4.26124513149262E+0001
 5.37800000000000E+0002  4.32309179306030E+0001
 5.37750000000000E+0002  4.25581686496735E+0001
 5.37700000000000E+0002  4.23669185638428E+0001
 5.37650000000000E+0002  4.33538007736206E+0001
 5.37600000000000E+0002  4.17658305168152E+0001
 5.37550000000000E+0002  4.34084055423737E+0001
 5.37500000000000E+0002  4.35339078903198E+0001
 5.37450000000000E+0002  4.27038662433624E+0001
 5.37400000000000E+0002  4.41349508762360E+0001
 5.37350000000000E+0002  4.42647993564606E+0001
 5.37300000000000E+0002  4.44241909980774E+0001
 5.37250000000000E+0002  4.44424281120300E+0001
 5.37200000000000E+0002  4.57517099380493E+0001
 5.37150000000000E+0002  4.61173181533813E+0001
 5.37100000000000E+0002  4.64081482887268E+0001
 5.37050000000000E+0002  4.57506151199341E+0001
 5.37000000000000E+0002  4.52992253303528E+0001
 5.36950000000000E+0002  4.51152167320251E+0001
 5.36900000000000E+0002  4.43821468353271E+0001
 5.36850000000000E+0002  4.59660749435425E+0001
 5.36800000000000E+0002  4.53162350654602E+0001
 5.36750000000000E+0002  4.52757296562195E+0001
 5.36700000000000E+0002  4.87037935256958E+0001
 5.36650000000000E+0002  4.83208360671997E+0001
 5.36600000000000E+0002  4.86841068267822E+0001
 5.36550000000000E+0002  4.93665986061096E+0001
 5.36500000000000E+0002  4.91219077110290E+0001
 5.36450000000000E+0002  5.02942924499512E+0001
 5.36400000000000E+0002  5.09271216392517E+0001
 5.36350000000000E+0002  5.22533817291260E+0001
 5.36300000000000E+0002  5.43069672584534E+0001
 5.36250000000000E+0002  5.26842055320740E+0001
 5.36200000000000E+0002  5.41342010498047E+0001
 5.36150000000000E+0002  5.42556610107422E+0001
 5.36100000000000E+0002  5.85697131156921E+0001
 5.36050000000000E+0002  5.82080273628235E+0001
 5.36000000000000E+0002  5.89223275184631E+0001
 5.35950000000000E+0002  6.10822672843933E+0001
 5.35900000000000E+0002  6.16539044380188E+0001
 5.35850000000000E+0002  6.38179636001587E+0001
 5.35800000000000E+0002  6.57144846916199E+0001
 5.35750000000000E+0002  6.60665006637573E+0001
 5.35700000000000E+0002  6.95812177658081E+0001
 5.35650000000000E+0002  6.98273558616638E+0001
 5.35600000000000E+0002  7.26420011520386E+0001
 5.35550000000000E+0002  7.53248744010925E+0001
 5.35500000000000E+0002  7.68772463798523E+0001
 5.35450000000000E+0002  7.80857543945313E+0001
 5.35400000000000E+0002  8.13783807754516E+0001
 5.35350000000000E+0002  7.99037485122681E+0001
 5.35300000000000E+0002  8.41461496353149E+0001
 5.35250000000000E+0002  8.43603825569153E+0001
 5.35200000000000E+0002  8.68215208053589E+0001
 5.35150000000000E+0002  8.75874128341675E+0001
 5.35100000000000E+0002  8.55307416915894E+0001
 5.35050000000000E+0002  8.71610946655273E+0001
 5.35000000000000E+0002  9.04293212890625E+0001
 5.34950000000000E+0002  9.00578508377075E+0001
 5.34900000000000E+0002  9.27671051025391E+0001
 5.34850000000000E+0002  9.14045534133911E+0001
 5.34800000000000E+0002  9.04094982147217E+0001
 5.34750000000000E+0002  9.44222517013550E+0001
 5.34700000000000E+0002  9.55057535171509E+0001
 5.34650000000000E+0002  9.62439813613892E+0001
 5.34600000000000E+0002  9.56871652603149E+0001
 5.34550000000000E+0002  9.60167474746704E+0001
 5.34500000000000E+0002  9.62710514068604E+0001
 5.34450000000000E+0002  9.37508964538574E+0001
 5.34400000000000E+0002  9.32175407409668E+0001
 5.34350000000000E+0002  9.15820808410644E+0001
 5.34300000000000E+0002  9.17604427337647E+0001
 5.34250000000000E+0002  9.30971956253052E+0001
 5.34200000000000E+0002  9.35980300903320E+0001
 5.34150000000000E+0002  9.23610973358154E+0001
 5.34100000000000E+0002  9.08386344909668E+0001
 5.34050000000000E+0002  8.98163514137268E+0001
 5.34000000000000E+0002  9.14445428848267E+0001
 5.33950000000000E+0002  8.97463207244873E+0001
 5.33900000000000E+0002  8.80241518020630E+0001
 5.33850000000000E+0002  8.47837800979614E+0001
 5.33800000000000E+0002  8.69875574111938E+0001
 5.33750000000000E+0002  8.73812694549560E+0001
 5.33700000000000E+0002  8.67989244461060E+0001
 5.33650000000000E+0002  8.49593920707703E+0001
 5.33600000000000E+0002  8.27856502532959E+0001
 5.33550000000000E+0002  8.15720233917236E+0001
 5.33500000000000E+0002  8.14017481803894E+0001
 5.33450000000000E+0002  7.94127359390259E+0001
 5.33400000000000E+0002  8.05779824256897E+0001
 5.33350000000000E+0002  7.81494069099426E+0001
 5.33300000000000E+0002  7.74515819549561E+0001
 5.33250000000000E+0002  7.42834849357605E+0001
 5.33200000000000E+0002  7.54389734268189E+0001
 5.33150000000000E+0002  7.29653744697571E+0001
 5.33100000000000E+0002  7.32050108909607E+0001
 5.33050000000000E+0002  7.19433016777039E+0001
 5.33000000000000E+0002  7.04000902175903E+0001
 5.32950000000000E+0002  6.97560429573059E+0001
 5.32900000000000E+0002  6.88683428764343E+0001
 5.32850000000000E+0002  6.77290244102478E+0001
 5.32800000000000E+0002  6.51247253417969E+0001
 5.32750000000000E+0002  6.19389557838440E+0001
 5.32700000000000E+0002  5.99805526733398E+0001
 5.32650000000000E+0002  6.01044540405273E+0001
 5.32600000000000E+0002  5.89415912628174E+0001
 5.32550000000000E+0002  5.90669021606445E+0001
 5.32500000000000E+0002  5.61199173927307E+0001
 5.32450000000000E+0002  5.57963409423828E+0001
 5.32400000000000E+0002  5.37518806457520E+0001
 5.32350000000000E+0002  5.10679488182068E+0001
 5.32300000000000E+0002  5.16476454734802E+0001
 5.32250000000000E+0002  5.06585469245911E+0001
 5.32200000000000E+0002  4.83076696395874E+0001
 5.32150000000000E+0002  4.72053365707397E+0001
 5.32100000000000E+0002  4.59242997169495E+0001
 5.32050000000000E+0002  4.52762131690979E+0001
 5.32000000000000E+0002  4.41225605010986E+0001
 5.31950000000000E+0002  4.37362377643585E+0001
 5.31900000000000E+0002  4.18714742660522E+0001
 5.31850000000000E+0002  4.32245750427246E+0001
 5.31800000000000E+0002  4.09733598232269E+0001
 5.31750000000000E+0002  4.02502605915070E+0001
 5.31700000000000E+0002  3.94257085323334E+0001
 5.31650000000000E+0002  3.98635468482971E+0001
 5.31600000000000E+0002  3.93485205173492E+0001
 5.31550000000000E+0002  3.87603127956390E+0001
 5.31500000000000E+0002  3.85138058662415E+0001
 5.31450000000000E+0002  3.75190138816833E+0001
 5.31400000000000E+0002  3.73601417541504E+0001
 5.31350000000000E+0002  3.63250026702881E+0001
 5.31300000000000E+0002  3.67627418041229E+0001
 5.31250000000000E+0002  3.66444351673126E+0001
 5.31200000000000E+0002  3.65694634914398E+0001
 5.31150000000000E+0002  3.50797307491302E+0001
 5.31100000000000E+0002  3.34124302864075E+0001
 5.31050000000000E+0002  3.56603455543518E+0001
 5.31000000000000E+0002  3.47568786144257E+0001
 5.30950000000000E+0002  3.50225503444672E+0001
 5.30900000000000E+0002  3.49030745029449E+0001
 5.30850000000000E+0002  3.44228732585907E+0001
 5.30800000000000E+0002  3.53360071182251E+0001
 5.30750000000000E+0002  3.49190313816071E+0001
 5.30700000000000E+0002  3.38437778949738E+0001
 5.30650000000000E+0002  3.57500011920929E+0001
 5.30600000000000E+0002  3.42055761814117E+0001
 5.30550000000000E+0002  3.45075919628143E+0001
 5.30500000000000E+0002  3.53403608798981E+0001
 5.30450000000000E+0002  3.45359432697296E+0001
 5.30400000000000E+0002  3.30226275920868E+0001
 5.30350000000000E+0002  3.41064105033874E+0001
 5.30300000000000E+0002  3.52104864120483E+0001
 5.30250000000000E+0002  3.45113027095795E+0001
 5.30200000000000E+0002  3.41636121273041E+0001
 5.30150000000000E+0002  3.38273260593414E+0001
 5.30100000000000E+0002  3.41321003437042E+0001
 5.30050000000000E+0002  3.38409335613251E+0001
 5.30000000000000E+0002  3.48787782192230E+0001
 5.29950000000000E+0002  3.39859948158264E+0001
 5.29900000000000E+0002  3.55367026329041E+0001
 5.29850000000000E+0002  3.48506691455841E+0001
 5.29800000000000E+0002  3.39169752597809E+0001
 5.29750000000000E+0002  3.43016326427460E+0001
 5.29700000000000E+0002  3.27119779586792E+0001
 5.29650000000000E+0002  3.36597318649292E+0001
 5.29600000000000E+0002  3.26353783607483E+0001
 5.29550000000000E+0002  3.39800014495850E+0001
 5.29500000000000E+0002  3.33108525276184E+0001
 5.29450000000000E+0002  3.37231440544128E+0001
 5.29400000000000E+0002  3.34360146522522E+0001
 5.29350000000000E+0002  3.43898880481720E+0001
 5.29300000000000E+0002  3.20930542945862E+0001
 5.29250000000000E+0002  3.37562384605408E+0001
 5.29200000000000E+0002  3.34300663471222E+0001
 5.29150000000000E+0002  3.45569119453430E+0001
 5.29100000000000E+0002  3.45773384571075E+0001
 5.29050000000000E+0002  3.36243486404419E+0001
 5.29000000000000E+0002  3.17781815528870E+0001
 5.28950000000000E+0002  3.30324678421020E+0001
 5.28900000000000E+0002  3.43747026920319E+0001
 5.28850000000000E+0002  3.35745210647583E+0001
 5.28800000000000E+0002  3.52395505905151E+0001
 5.28750000000000E+0002  3.43261234760284E+0001
 5.28700000000000E+0002  3.37997915744782E+0001
 5.28650000000000E+0002  3.46945223808289E+0001
 5.28600000000000E+0002  3.31847984790802E+0001
 5.28550000000000E+0002  3.28647885322571E+0001
 5.28500000000000E+0002  3.38129134178162E+0001
 5.28450000000000E+0002  3.31347296237946E+0001
 5.28400000000000E+0002  3.35787084102631E+0001
 5.28350000000000E+0002  3.39178361892700E+0001
 5.28300000000000E+0002  3.45807940959930E+0001
 5.28250000000000E+0002  3.44208273887634E+0001
 5.28200000000000E+0002  3.34573972225189E+0001
 5.28150000000000E+0002  3.23875689506531E+0001
 5.28100000000000E+0002  3.39170432090759E+0001
 5.28050000000000E+0002  3.31167666912079E+0001
 5.28000000000000E+0002  3.40236582756042E+0001
 5.27950000000000E+0002  3.39842483997345E+0001
 5.27900000000000E+0002  3.44796545505524E+0001
 5.27850000000000E+0002  3.37582197189331E+0001
 5.27800000000000E+0002  3.34611418247223E+0001
 5.27750000000000E+0002  3.46052184104919E+0001
 5.27700000000000E+0002  3.47990989685059E+0001
 5.27650000000000E+0002  3.48924221992493E+0001
 5.27600000000000E+0002  3.46597459316254E+0001
 5.27550000000000E+0002  3.40325171947479E+0001
 5.27500000000000E+0002  3.29972164630890E+0001
 5.27450000000000E+0002  3.46573128700256E+0001
 5.27400000000000E+0002  3.36046924591064E+0001
 5.27350000000000E+0002  3.37140352725983E+0001
 5.27300000000000E+0002  3.30015587806702E+0001
 5.27250000000000E+0002  3.30903720855713E+0001
 5.27200000000000E+0002  3.38356111049652E+0001
 5.27150000000000E+0002  3.28471219539642E+0001
 5.27100000000000E+0002  3.35466070175171E+0001
 5.27050000000000E+0002  3.58297452926636E+0001
 5.27000000000000E+0002  3.40395655632019E+0001
 5.26950000000000E+0002  3.34028382301331E+0001
 5.26900000000000E+0002  3.28951578140259E+0001
 5.26850000000000E+0002  3.28813335895538E+0001
 5.26800000000000E+0002  3.40525107383728E+0001
 5.26750000000000E+0002  3.28769936561584E+0001
 5.26700000000000E+0002  3.27114105224609E+0001
 5.26650000000000E+0002  3.35254044532776E+0001
 5.26600000000000E+0002  3.29401166439056E+0001
 5.26550000000000E+0002  3.36244065761566E+0001
 5.26500000000000E+0002  3.43522882461548E+0001
 5.26450000000000E+0002  3.45333826541901E+0001
 5.26400000000000E+0002  3.53309869766235E+0001
 5.26350000000000E+0002  3.39293432235718E+0001
 5.26300000000000E+0002  3.41956310272217E+0001
 5.26250000000000E+0002  3.34184672832489E+0001
 5.26200000000000E+0002  3.32342834472656E+0001
 5.26150000000000E+0002  3.41275007724762E+0001
 5.26100000000000E+0002  3.26891272068024E+0001
 5.26050000000000E+0002  3.35209221839905E+0001
 5.26000000000000E+0002  3.22329361438751E+0001
 5.25950000000000E+0002  3.31961584091186E+0001
 5.25900000000000E+0002  3.33040945529938E+0001
 5.25850000000000E+0002  3.33491184711456E+0001
 5.25800000000000E+0002  3.19709210395813E+0001
 5.25750000000000E+0002  3.35551128387451E+0001
 5.25700000000000E+0002  3.42341759204865E+0001
 5.25650000000000E+0002  3.31318242549896E+0001
 5.25600000000000E+0002  3.26997473239899E+0001
 5.25550000000000E+0002  3.25654180049896E+0001
 5.25500000000000E+0002  3.48793830871582E+0001
 5.25450000000000E+0002  3.39549167156220E+0001
 5.25400000000000E+0002  3.26112837791443E+0001
 5.25350000000000E+0002  3.24435234069824E+0001
 5.25300000000000E+0002  3.38465132713318E+0001
 5.25250000000000E+0002  3.38328261375427E+0001
 5.25200000000000E+0002  3.42140345573425E+0001
 5.25150000000000E+0002  3.30711390972137E+0001
 5.25100000000000E+0002  3.27561621665955E+0001
 5.25050000000000E+0002  3.40825779438019E+0001
 5.25000000000000E+0002  3.27145836353302E+0001

