VAMAS Surface Chemical Analysis Standard Data Transfer Format 1988 May 4
Not Specified
Not Specified
Not Specified
Not Specified
5
Casa Info Follows CasaXPS Version 2.3.25PR1.0
0
Created by SpecsLab Prodigy, Version 4.100.1-r111001 
SourceAnalyserAngle: Not Specified
CasaRowLabel:1 as-loaded
NORM
REGULAR
0
1
Exp Variable
d
0
0
0
0
1
Survey
1 as-loaded
2023
8
24
14
19
47
0
14
Casa Info Follows
0
0
0
0
File = D:/OwnCloud/Project data/FAIRmat/export test/sle/EX889_S1110_MgFe2O4_spent.sle
Group = 1 as-loaded
First of group = 1
Spectrum ID = 20
Analyzer lens = LargeArea:1.5kV
Analyzer slit = 4:7x20c\C:mesh
Scan mode = FixedAnalyzerTransmission
Kinetic energy start = 136.61
C:\Users\pielsticker\Lukas\FAIRMat\user_cases\Pielsticker_XPS_MPI-CEC\EX889_S1110_MgFe2O4_spent\vms\EX889_S1110_MgFe2O4_spent_regular.vms
XPS
0
Al
1486.61
0
0
0
54.5
180
FAT
100
1
4.1082
0
0
0
0
0
Survey

-1
kinetic energy
eV
136.61
1
2
counts
d
Transmission
d
pulse counting
0.1
1
0
0
0
0
2
ESCAPE DEPTH TYPE
d
1
MFP Exponent
d
0
2702
18.1529
10836.6
23.5611
78.8103
1559.87
78.8103
1586.79
78.5146
1565.15
78.2222
1532.13
77.933
1579.34
77.647
1566.2
77.3642
1559.9
77.0844
1575.89
76.8076
1568.17
76.5338
1596.81
76.2628
1584.46
75.9948
1532.83
75.7295
1554.1
75.467
1535.59
75.2073
1553.13
74.9501
1583.11
74.6956
1562.84
74.4437
1564.34
74.1943
1564.92
73.9474
1550.85
73.703
1616.87
73.4609
1678.37
73.2213
1669.65
72.9839
1724.2
72.7489
1622.54
72.5161
1651.86
72.2855
1638.19
72.0571
1695.62
71.8309
1650.32
71.6068
1707.48
71.3847
1660.89
71.1647
1668.98
70.9468
1626.16
70.7308
1626.05
70.5168
1598.67
70.3047
1594.31
70.0945
1557.62
69.8862
1574.93
69.6798
1530.71
69.4751
1508.85
69.2723
1558.39
69.0712
1591.39
68.8719
1718.53
68.6743
1738.14
68.4783
2095.68
68.2841
2671.96
68.0914
2757.07
67.9004
2274.45
67.711
1750.86
67.5232
1565.47
67.337
1511.87
67.1522
1556.88
66.969
1534.57
66.7873
1530.3
66.607
1493.8
66.4282
1505.46
66.2508
1497.65
66.0749
1520.5
65.9003
1530.62
65.7271
1577.25
65.5553
1574.41
65.3848
1559.99
65.2156
1597.34
65.0477
1569.35
64.8812
1590.92
64.7159
1619.86
64.5518
1596.69
64.389
1548.91
64.2274
1647.49
64.0671
1595.61
63.9079
1650.16
63.7499
1593.16
63.5931
1611.57
63.4374
1661.15
63.2829
1606.1
63.1295
1612.16
62.9772
1620.29
62.8259
1639.24
62.6758
1650.37
62.5268
1636.44
62.3788
1638.33
62.2318
1565.45
62.0859
1670.93
61.941
1658.31
61.7972
1705.44
61.6543
1644.22
61.5124
1642.88
61.3715
1635.96
61.2315
1703.59
61.0925
1678.18
60.9544
1653.29
60.8173
1655.99
60.6811
1739.67
60.5458
1733.78
60.4114
1696.45
60.2779
1723.66
60.1453
1718.75
60.0135
1768.57
59.8826
1741.39
59.7526
1734.81
59.6234
1774.56
59.495
1759.46
59.3675
1680.27
59.2408
1757.98
59.1149
1778.29
58.9898
1801.33
58.8655
1829.88
58.7419
1871.03
58.6192
1925.4
58.4972
1879.21
58.3759
1847.32
58.2554
1813.84
58.1357
1838.2
58.0167
1878.25
57.8984
1888.03
57.7808
1884.11
57.664
1929.41
57.5479
1952.14
57.4324
1950.57
57.3177
1900.39
57.2036
1872.67
57.0902
1907.94
56.9775
1966.75
56.8655
1986.06
56.7541
1956.3
56.6433
1894.49
56.5332
1911.66
56.4238
1936.65
56.315
1950.51
56.2068
1966.01
56.0992
1917.42
55.9922
1944.08
55.8859
1876.57
55.7801
1952.94
55.675
1935.77
55.5704
1912.69
55.4665
1987.9
55.3631
1919.75
55.2603
1874.3
55.158
1930.37
55.0564
1889.53
54.9553
1891.26
54.8547
1968.67
54.7547
2031.15
54.6552
2012.75
54.5563
2001.53
54.4579
1967.13
54.3601
2038.89
54.2627
2003.47
54.1659
1939.11
54.0696
2030.01
53.9738
2107.98
53.8786
2057.44
53.7838
2059.59
53.6895
2047.33
53.5957
2025.78
53.5024
2059.42
53.4096
2101.8
53.3173
2082.68
53.2255
2091.96
53.1341
2114.61
53.0432
2021.11
52.9528
2087.39
52.8628
2118.41
52.7733
2092.11
52.6842
2069.75
52.5956
2141.01
52.5074
2098.73
52.4197
2112.32
52.3324
2128.38
52.2455
2174.64
52.1591
2207.51
52.0731
2157
51.9875
2145.98
51.9024
2140.12
51.8176
2148.66
51.7333
2193.11
51.6494
2158.89
51.5659
2154.73
51.4828
2360.73
51.4001
2290.34
51.3178
2251.53
51.2358
2209.06
51.1543
2186.3
51.0732
2243.28
50.9924
2302.04
50.9121
2275.91
50.8321
2316.28
50.7525
2278.56
50.6732
2287.64
50.5944
2313.54
50.5159
2324.13
50.4377
2340.14
50.36
2377.54
50.2825
2353.57
50.2055
2339.97
50.1288
2358.76
50.0524
2385.94
49.9764
2383.74
49.9007
2357.84
49.8254
2357.46
49.7504
2334.73
49.6758
2355.73
49.6015
2352.54
49.5275
2391.19
49.4539
2394.41
49.3805
2426.68
49.3076
2447.03
49.2349
2450.6
49.1625
2428.4
49.0905
2411.46
49.0188
2477.62
48.9474
2473.43
48.8763
2452.09
48.8055
2458.41
48.735
2510.02
48.6649
2466.94
48.595
2516.35
48.5254
2493.71
48.4561
2558.59
48.3872
2514.47
48.3185
2501.45
48.2501
2542.46
48.182
2544.79
48.1142
2564.02
48.0466
2613.64
47.9794
2573.06
47.9124
2611.51
47.8458
2599.39
47.7793
2614.03
47.7132
2645.83
47.6474
2569.28
47.5818
2594.86
47.5165
2638.49
47.4514
2615.08
47.3866
2618.4
47.3221
2688.75
47.2579
2704.86
47.1939
2645.78
47.1301
2674.26
47.0667
2668.06
47.0035
2687.27
46.9405
2711.88
46.8778
2749.15
46.8153
2683.49
46.7531
2716.97
46.6911
2723.18
46.6294
2788.5
46.5679
2761.46
46.5067
2774.06
46.4457
2757.48
46.385
2776.95
46.3244
2731.45
46.2642
2816.46
46.2041
2821.52
46.1443
2777.24
46.0847
2794.63
46.0254
2807.2
45.9663
2898.61
45.9074
2864.09
45.8487
2793.14
45.7903
2780.06
45.732
2913.25
45.674
2866.51
45.6163
2872.53
45.5587
2913.63
45.5014
2923.84
45.4442
2936.52
45.3873
2905.63
45.3306
2949.59
45.2741
2895.54
45.2179
2959.7
45.1618
2919.39
45.1059
2932.11
45.0503
2977.59
44.9948
2937.74
44.9396
2952.96
44.8846
2982.81
44.8297
3001.82
44.7751
2983.4
44.7206
2999.63
44.6664
3037.31
44.6124
3031.46
44.5585
3108.65
44.5049
3017.8
44.4514
3025.32
44.3981
3082.05
44.3451
3073.5
44.2922
3127.1
44.2395
3132.37
44.187
3085.73
44.1346
3107.65
44.0825
3025.26
44.0306
3143.23
43.9788
3101.6
43.9272
3218.56
43.8758
3186.14
43.8246
3190.59
43.7735
3214.04
43.7226
3188.25
43.672
3180.41
43.6214
3233.96
43.5711
3195.36
43.5209
3289.71
43.4709
3245.65
43.4211
3256.15
43.3715
3286.51
43.322
3273.36
43.2727
3234.52
43.2235
3254.16
43.1745
3307.83
43.1257
3288.27
43.0771
3282.41
43.0286
3214.57
42.9803
3387.93
42.9321
3394.45
42.8841
3346.38
42.8363
3399.57
42.7886
3432.17
42.7411
3371.22
42.6937
3382.29
42.6465
3519.85
42.5995
3465.57
42.5526
3481.13
42.5059
3400.96
42.4593
3485.9
42.4129
3500.51
42.3666
3434.69
42.3205
3445.45
42.2745
3531.13
42.2287
3607.43
42.183
3658.26
42.1374
3647.8
42.0921
3644.84
42.0468
3680.27
42.0017
3771.88
41.9568
3753.18
41.912
3648.12
41.8673
3667.52
41.8228
3636.53
41.7784
3629.03
41.7342
3631.38
41.6901
3666.16
41.6462
3791.26
41.6024
3763.01
41.5587
3777.31
41.5151
3759.79
41.4717
3811.61
41.4285
3882.98
41.3853
3948.47
41.3423
3862.6
41.2995
3914.22
41.2567
4009.02
41.2141
3920.11
41.1717
3957.47
41.1293
3865.42
41.0871
3785.27
41.0451
3872.52
41.0031
3753.65
40.9613
3844.6
40.9196
3855.37
40.878
3794.87
40.8366
3860.29
40.7953
3747.79
40.7541
3715.49
40.713
3745.65
40.6721
3869.44
40.6313
3950.49
40.5906
3970.95
40.55
4096.81
40.5096
4257.04
40.4692
4459.86
40.429
4692.13
40.389
4721.97
40.349
4464.4
40.3091
4262.12
40.2694
4142.39
40.2298
4056.91
40.1903
3928.01
40.1509
3882.82
40.1116
3866.38
40.0725
3725.36
40.0334
3765.33
39.9945
3709.83
39.9557
3562.89
39.917
3621.55
39.8784
3597.42
39.84
3596.66
39.8016
3638.07
39.7633
3611.19
39.7252
3579.1
39.6872
3642.96
39.6492
3589.74
39.6114
3597.4
39.5737
3554.48
39.5361
3547.16
39.4986
3642.72
39.4612
3669.33
39.424
3693.42
39.3868
3673.08
39.3497
3675.11
39.3127
3588.19
39.2759
3692.67
39.2391
3710.96
39.2025
3686.1
39.1659
3760.52
39.1295
3707.84
39.0931
3779.49
39.0569
3761.04
39.0207
3718.59
38.9847
3684.06
38.9487
3748.66
38.9129
3819.79
38.8771
3825.54
38.8415
3782.95
38.8059
3816.27
38.7705
3817.34
38.7351
3767.79
38.6999
3835.76
38.6647
3831.35
38.6296
3846.04
38.5946
3861.49
38.5598
3881.65
38.525
3865.56
38.4903
3857.45
38.4557
3875.75
38.4212
3906.68
38.3868
3929.36
38.3525
3908.24
38.3182
3843.91
38.2841
3909.05
38.25
3815.29
38.2161
3854.63
38.1822
3872.94
38.1485
3955
38.1148
3942.5
38.0812
3929.13
38.0477
3966
38.0142
3988.06
37.9809
3945.92
37.9477
4036.63
37.9145
3940.43
37.8814
3911.4
37.8485
3944.21
37.8156
3989.48
37.7828
4059.45
37.75
4114.2
37.7174
4131.45
37.6848
4037.94
37.6524
4051.83
37.62
4080.58
37.5877
4003.13
37.5554
4093.51
37.5233
4172.74
37.4912
4121.38
37.4593
4036.65
37.4274
3995.45
37.3956
4060.18
37.3638
4155.04
37.3322
4117.42
37.3006
3990.85
37.2691
4000.41
37.2377
4041.35
37.2064
3870.38
37.1751
3778.99
37.1439
3710.41
37.1129
3790.6
37.0818
3844.2
37.0509
3821.32
37.02
3804.37
36.9892
3802.21
36.9585
3733.64
36.9279
3718.82
36.8973
3703.71
36.8669
3758.16
36.8365
3743.39
36.8061
3721.92
36.7759
3717.49
36.7457
3663.76
36.7156
3730.41
36.6856
3820.22
36.6556
3776.22
36.6257
3777.44
36.5959
3766.95
36.5662
3769.71
36.5365
3805.45
36.5069
3806.64
36.4774
3822.4
36.4479
3784
36.4185
3864.01
36.3892
3802.12
36.36
3793.02
36.3308
3855.97
36.3017
3865.08
36.2727
3969.75
36.2437
3965.21
36.2148
3951.6
36.186
3968.58
36.1573
3993.61
36.1286
4001.33
36.1
3935.5
36.0714
3982.89
36.0429
4040.27
36.0145
4023.74
35.9862
3911.81
35.9579
3921.6
35.9297
4022.79
35.9015
4088.37
35.8734
4041.13
35.8454
4017.61
35.8175
3927.19
35.7896
3872.86
35.7618
3876.24
35.734
3812.48
35.7063
3810.52
35.6787
3705.95
35.6511
3661.32
35.6236
3563.39
35.5962
3501.12
35.5688
3467.18
35.5415
3409.4
35.5143
3410.86
35.4871
3342.05
35.46
3342.44
35.4329
3341.08
35.4059
3308.88
35.379
3244.79
35.3521
3270.97
35.3253
3304.26
35.2986
3316.09
35.2719
3247.5
35.2452
3269.42
35.2187
3335.66
35.1922
3276.58
35.1657
3298.95
35.1393
3351.99
35.113
3333.76
35.0867
3295.96
35.0605
3347.12
35.0343
3363.57
35.0082
3424.67
34.9822
3353.64
34.9562
3320.7
34.9303
3385
34.9044
3422.18
34.8786
3415.06
34.8529
3381.96
34.8272
3405.82
34.8016
3447.33
34.776
3404.91
34.7505
3389.96
34.725
3427.81
34.6996
3279.72
34.6742
3349.87
34.6489
3389.01
34.6237
3394.67
34.5985
3423.51
34.5733
3515.64
34.5483
3503.51
34.5232
3584.13
34.4983
3570.18
34.4734
3657.07
34.4485
3607.56
34.4237
3644.13
34.3989
3743.45
34.3742
3722.89
34.3496
3700.64
34.325
3658.06
34.3004
3599.17
34.2759
3538.86
34.2515
3517.02
34.2271
3505.76
34.2028
3389.38
34.1785
3292.63
34.1543
3269.42
34.1301
3380.76
34.106
3448.83
34.0819
3449.41
34.0578
3389.06
34.0339
3328.38
34.0099
3366.07
33.9861
3362.16
33.9622
3332.35
33.9385
3379.05
33.9147
3261.45
33.8911
3287.45
33.8674
3255.47
33.8439
3239.89
33.8203
3332.75
33.7969
3287.03
33.7734
3298.2
33.7501
3351.26
33.7267
3310.05
33.7034
3313.18
33.6802
3333.43
33.657
3265.39
33.6339
3398.28
33.6108
3300.22
33.5877
3418.91
33.5647
3393.61
33.5418
3345.42
33.5189
3357.74
33.496
3421.71
33.4732
3410.48
33.4505
3475.22
33.4277
3432.94
33.4051
3576.56
33.3824
3492.78
33.3599
3476.75
33.3373
3460.59
33.3148
3328.99
33.2924
3421.32
33.27
3443.4
33.2477
3475.87
33.2254
3553.21
33.2031
3625.36
33.1809
3604.94
33.1587
3701.67
33.1366
3622.6
33.1145
3669.36
33.0925
3662.8
33.0705
3642.56
33.0485
3688.15
33.0266
3775.45
33.0047
3909.49
32.9829
3959.46
32.9611
3873.13
32.9394
3800.47
32.9177
3677.36
32.8961
3440.29
32.8744
3423.94
32.8529
3347.7
32.8314
3315.05
32.8099
3327.11
32.7884
3404.95
32.7671
3455.04
32.7457
3664.53
32.7244
3947.69
32.7031
4143.85
32.6819
4015.34
32.6607
3807.48
32.6396
3397.91
32.6184
2803.3
32.5974
2492.37
32.5764
2267.74
32.5554
2229.81
32.5344
2121.65
32.5135
2123.23
32.4927
2189.71
32.4718
2191.1
32.4511
2179.19
32.4303
2114.88
32.4096
2190.7
32.389
2163.01
32.3683
2183.28
32.3478
2183.21
32.3272
2132.11
32.3067
2129.18
32.2862
2176.11
32.2658
2171.07
32.2454
2184.97
32.2251
2195.54
32.2048
2242.19
32.1845
2261.83
32.1642
2259.85
32.144
2255.38
32.1239
2201.71
32.1038
2255.39
32.0837
2220.13
32.0636
2185.38
32.0436
2241.34
32.0237
2204.58
32.0037
2247.31
31.9838
2239.56
31.964
2261.49
31.9441
2293.48
31.9244
2272.88
31.9046
2271.62
31.8849
2221.53
31.8652
2314.43
31.8456
2296.97
31.826
2310.69
31.8064
2297.91
31.7869
2295.44
31.7674
2327.22
31.7479
2286.99
31.7285
2265.61
31.7091
2323.71
31.6898
2349.41
31.6704
2248.72
31.6512
2300.8
31.6319
2259.05
31.6127
2280.49
31.5935
2374.34
31.5744
2327.19
31.5553
2390.85
31.5362
2401.69
31.5172
2380.2
31.4982
2407.42
31.4792
2375.09
31.4603
2372.97
31.4414
2335.34
31.4225
2367.35
31.4037
2381.62
31.3849
2358.67
31.3661
2325.5
31.3474
2378.51
31.3287
2401.77
31.31
2370.24
31.2914
2400.64
31.2728
2374.29
31.2542
2413.11
31.2357
2442.07
31.2172
2407.36
31.1987
2343.49
31.1803
2390.29
31.1619
2473.12
31.1435
2488.82
31.1252
2447.61
31.1069
2426.35
31.0886
2390.07
31.0704
2463.45
31.0522
2425.24
31.034
2534.41
31.0158
2470.01
30.9977
2473.89
30.9796
2483.39
30.9616
2447.27
30.9436
2503.71
30.9256
2487.21
30.9076
2541.03
30.8897
2554.33
30.8718
2548.3
30.854
2534.2
30.8361
2564.23
30.8183
2545.56
30.8006
2580.64
30.7828
2526.96
30.7651
2629.89
30.7475
2598.42
30.7298
2625.53
30.7122
2579.85
30.6946
2547.42
30.6771
2567.12
30.6595
2610.77
30.642
2616.9
30.6246
2603.38
30.6071
2596.31
30.5897
2573.56
30.5724
2601.8
30.555
2620.68
30.5377
2643.64
30.5204
2634.59
30.5031
2648.58
30.4859
2614.14
30.4687
2664.53
30.4515
2640.11
30.4344
2649.47
30.4173
2620.34
30.4002
2684.13
30.3832
2770.86
30.3661
2740.17
30.3491
2745.64
30.3322
2749.15
30.3152
2684.76
30.2983
2698.35
30.2814
2692.1
30.2646
2635.78
30.2477
2679.65
30.2309
2757.59
30.2142
2746.82
30.1974
2736.37
30.1807
2729.77
30.164
2756.35
30.1474
2777.97
30.1307
2767.78
30.1141
2814.13
30.0975
2813.38
30.081
2833.51
30.0645
2844.65
30.048
2800.18
30.0315
2834.07
30.0151
2891.2
29.9986
2911.29
29.9823
2863.73
29.9659
2783.29
29.9496
2802.54
29.9333
2872.58
29.917
2831.56
29.9007
2876.02
29.8845
2888.34
29.8683
2905.62
29.8521
3010.81
29.836
3061.91
29.8198
3180
29.8037
3308.58
29.7877
3159.4
29.7716
3170.76
29.7556
3126.36
29.7396
2998.97
29.7236
2915.15
29.7077
2924.83
29.6918
2712.68
29.6759
2759.56
29.66
2633.58
29.6442
2601.11
29.6284
2610.47
29.6126
2525.95
29.5968
2484.36
29.5811
2425.34
29.5654
2445.18
29.5497
2453.3
29.534
2343.66
29.5184
2457.7
29.5028
2582.03
29.4872
2883.02
29.4716
3509.9
29.4561
4917.17
29.4406
6871.43
29.4251
7909.72
29.4096
6336.91
29.3942
3641.81
29.3787
2447.76
29.3633
2145.26
29.348
2134.14
29.3326
2055.05
29.3173
2058.58
29.302
2143.99
29.2867
2129.66
29.2715
2146.41
29.2563
2124.34
29.2411
2195.89
29.2259
2165.19
29.2107
2125.13
29.1956
2176.27
29.1805
2186.61
29.1654
2138.4
29.1503
2106.22
29.1353
2185.07
29.1203
2170.58
29.1053
2160.84
29.0903
2193.81
29.0754
2145.58
29.0605
2129.8
29.0456
2221.15
29.0307
2246.21
29.0158
2209.38
29.001
2172.29
28.9862
2184.4
28.9714
2211.31
28.9567
2228.21
28.9419
2234.02
28.9272
2191.16
28.9125
2284.67
28.8978
2207.96
28.8832
2174.92
28.8686
2212.3
28.8539
2264.83
28.8394
2219.42
28.8248
2229.66
28.8103
2283.51
28.7957
2251.49
28.7812
2200.94
28.7668
2225.15
28.7523
2240.97
28.7379
2263.1
28.7235
2211.32
28.7091
2237.01
28.6947
2239.5
28.6804
2321.54
28.6661
2294.53
28.6518
2334.39
28.6375
2236.99
28.6232
2247.89
28.609
2274.6
28.5948
2273.66
28.5806
2248.54
28.5664
2301.37
28.5523
2370.62
28.5381
2308.63
28.524
2301.72
28.5099
2320.94
28.4959
2345.17
28.4818
2416.66
28.4678
2291.54
28.4538
2351.89
28.4398
2355.33
28.4258
2302.74
28.4119
2370.56
28.398
2356.11
28.3841
2285.34
28.3702
2333.3
28.3563
2370.23
28.3425
2382.09
28.3286
2414.98
28.3148
2448.46
28.3011
2440.6
28.2873
2381.75
28.2736
2341.95
28.2598
2385.54
28.2461
2418.42
28.2324
2446.05
28.2188
2404.69
28.2051
2480.4
28.1915
2423.9
28.1779
2499.41
28.1643
2448.74
28.1508
2428.41
28.1372
2444.88
28.1237
2436.94
28.1102
2433.34
28.0967
2474.11
28.0832
2424.33
28.0698
2410.84
28.0564
2378.05
28.043
2440.8
28.0296
2527.22
28.0162
2437.48
28.0029
2547.98
27.9895
2494.82
27.9762
2486.38
27.9629
2495.37
27.9496
2486.01
27.9364
2482.99
27.9232
2581.53
27.9099
2531.71
27.8967
2586.96
27.8836
2637.49
27.8704
2567.19
27.8572
2659.83
27.8441
2542.42
27.831
2638.99
27.8179
2547.54
27.8049
2541.78
27.7918
2580.54
27.7788
2539.73
27.7658
2549.89
27.7528
2560.56
27.7398
2619.43
27.7268
2628.95
27.7139
2722.46
27.701
2694.34
27.6881
2740.48
27.6752
2735.13
27.6623
2730.04
27.6495
2702.71
27.6366
2723.14
27.6238
2731.44
27.611
2743.45
27.5982
2773.12
27.5855
2739.82
27.5727
2787.3
27.56
2735.81
27.5473
2776.34
27.5346
2681.97
27.5219
2691.87
27.5093
2761.59
27.4966
2766.58
27.484
2777.7
27.4714
2800.24
27.4588
2824.1
27.4462
2792.84
27.4337
2858.7
27.4212
2958.37
27.4086
3122.91
27.3961
3302.71
27.3836
3266.85
27.3712
3145.78
27.3587
2973.16
27.3463
2903.35
27.3339
2883.99
27.3215
2913.09
27.3091
2939.03
27.2967
2841.41
27.2844
2899.11
27.2721
2941.94
27.2597
3009.92
27.2474
2996.62
27.2352
2932.21
27.2229
2855.78
27.2106
2830.32
27.1984
2810.04
27.1862
2828.48
27.174
2829.19
27.1618
2838.48
27.1497
2881.15
27.1375
2884.97
27.1254
2841.51
27.1132
2794.38
27.1011
2801.53
27.0891
2859.32
27.077
2848.6
27.0649
2890.32
27.0529
2866.95
27.0409
2988.53
27.0289
3065.19
27.0169
3353.8
27.0049
4062.05
26.993
4616.31
26.981
4853.89
26.9691
4490.87
26.9572
3765.91
26.9453
3300.31
26.9334
2970.04
26.9215
2794.55
26.9097
2702.77
26.8979
2787.06
26.8861
2773.82
26.8743
2764.71
26.8625
2776.82
26.8507
2849.4
26.8389
3048.86
26.8272
3285.1
26.8155
3501.76
26.8038
3329.89
26.7921
3049.89
26.7804
2986.11
26.7688
2968.11
26.7571
3107.31
26.7455
3108.4
26.7339
3129.88
26.7223
3197.95
26.7107
3252.79
26.6991
3153.13
26.6875
2969.74
26.676
2903.61
26.6645
2806.79
26.653
2630.74
26.6415
2525.55
26.63
2447.53
26.6185
2495.73
26.6071
2439.26
26.5956
2320.56
26.5842
2270.39
26.5728
2189
26.5614
2146.4
26.55
2145.97
26.5387
2481.3
26.5273
2923.49
26.516
3336.18
26.5047
3497.1
26.4934
3877.89
26.4821
5639.11
26.4708
8506.63
26.4595
10836.6
26.4483
9606.1
26.4371
5735.98
26.4258
2957.68
26.4146
1822.83
26.4034
1316.72
26.3923
1085.79
26.3811
970.5
26.37
926.149
26.3588
885.194
26.3477
862.1
26.3366
799.702
26.3255
807.653
26.3144
790.556
26.3034
801.822
26.2923
841.277
26.2813
853.177
26.2703
910.874
26.2593
1042.11
26.2483
1244.53
26.2373
1580.05
26.2263
1477.39
26.2154
1095.16
26.2044
884.679
26.1935
814.372
26.1826
791.712
26.1717
743.845
26.1608
753.034
26.1499
735.01
26.1391
700.411
26.1282
716.832
26.1174
716.658
26.1066
715.484
26.0958
721.596
26.085
747.636
26.0742
710.279
26.0635
697.313
26.0527
700.184
26.042
719.588
26.0312
759.877
26.0205
760.659
26.0098
774.439
25.9991
720.757
25.9885
752.16
25.9778
740.95
25.9672
744.767
25.9565
728.899
25.9459
707.586
25.9353
697.976
25.9247
688.251
25.9142
713.734
25.9036
687.787
25.893
650.849
25.8825
705.612
25.872
722.99
25.8614
719.757
25.8509
689.692
25.8405
668.031
25.83
690.496
25.8195
782.009
25.8091
785.314
25.7986
885.212
25.7882
922.177
25.7778
903.521
25.7674
880.802
25.757
779.619
25.7466
751.04
25.7363
707.866
25.7259
704.754
25.7156
645.032
25.7052
691.109
25.6949
716.191
25.6846
693.909
25.6743
664.448
25.6641
693.913
25.6538
701.625
25.6436
655.499
25.6333
654.445
25.6231
674.567
25.6129
662.513
25.6027
685.018
25.5925
653.953
25.5823
653.373
25.5721
658.506
25.562
682.785
25.5518
662.773
25.5417
638.873
25.5316
668.538
25.5215
687.657
25.5114
666.419
25.5013
638.456
25.4912
658.783
25.4812
692.175
25.4711
678.845
25.4611
667.156
25.4511
681.897
25.4411
659.374
25.4311
646.886
25.4211
675.337
25.4111
690.599
25.4012
677.649
25.3912
650.113
25.3813
647.628
25.3713
645.977
25.3614
656.456
25.3515
695.995
25.3416
709.987
25.3317
693.565
25.3219
677.359
25.312
669.894
25.3022
699.649
25.2923
666.535
25.2825
675.945
25.2727
665.449
25.2629
693.887
25.2531
717.518
25.2433
740.69
25.2336
712.263
25.2238
708.491
25.2141
704.775
25.2043
697.856
25.1946
701.851
25.1849
698.153
25.1752
706.236
25.1655
660.917
25.1558
643.383
25.1462
668.174
25.1365
673.139
25.1269
706.439
25.1172
743.437
25.1076
735.602
25.098
700.626
25.0884
680.974
25.0788
703.162
25.0692
708.584
25.0597
699.602
25.0501
727.802
25.0406
734.313
25.031
714.841
25.0215
691.855
25.012
724.871
25.0025
706.572
24.993
731.703
24.9835
734.806
24.974
752.743
24.9646
731.565
24.9551
734.231
24.9457
712.593
24.9363
717.394
24.9269
741.59
24.9175
745.817
24.9081
809.792
24.8987
798.709
24.8893
840.966
24.8799
759.28
24.8706
689.775
24.8613
691.945
24.8519
727.217
24.8426
755.684
24.8333
739.961
24.824
766.44
24.8147
725.648
24.8054
723.688
24.7962
735.84
24.7869
719.638
24.7777
708.913
24.7684
725.817
24.7592
695.256
24.75
702.168
24.7408
694.662
24.7316
738.886
24.7224
736.227
24.7132
743.942
24.7041
721.455
24.6949
745.532
24.6858
750.344
24.6766
738.152
24.6675
764.307
24.6584
784.343
24.6493
732.664
24.6402
708.189
24.6311
748.01
24.622
771.726
24.613
743.654
24.6039
802.587
24.5949
732.273
24.5858
753.307
24.5768
777.759
24.5678
794.737
24.5588
727.213
24.5498
734.891
24.5408
746.685
24.5318
810.113
24.5229
798.367
24.5139
781.758
24.505
745.457
24.496
796.885
24.4871
772.662
24.4782
752.297
24.4693
778.957
24.4604
804.677
24.4515
791.335
24.4426
838.846
24.4338
855.892
24.4249
834.514
24.4161
825.182
24.4072
792.076
24.3984
765.702
24.3896
731.4
24.3808
793.143
24.372
807.13
24.3632
847.999
24.3544
834.696
24.3456
829.928
24.3369
957.441
24.3281
1228.39
24.3194
1611.42
24.3106
1710.01
24.3019
1220.34
24.2932
775.257
24.2845
657.65
24.2758
589.275
24.2671
555.574
24.2584
540.144
24.2497
535.202
24.2411
561.554
24.2324
592.902
24.2238
567.368
24.2152
558.715
24.2065
593.777
24.1979
602.623
24.1893
585.821
24.1807
569.15
24.1721
614.427
24.1636
569.133
24.155
541.748
24.1464
527.352
24.1379
540.28
24.1294
536.909
24.1208
531.737
24.1123
489.602
24.1038
505.324
24.0953
510.439
24.0868
469.33
24.0783
476.742
24.0698
510.94
24.0614
515.15
24.0529
615.671
24.0445
759.427
24.036
802.359
24.0276
872.665
24.0192
799.813
24.0107
655.019
24.0023
552.074
23.9939
666.262
23.9856
948.54
23.9772
925.154
23.9688
488.365
23.9604
220.489
23.9521
174.542
23.9437
162.444
23.9354
162
23.9271
152.931
23.9188
143.328
23.9105
144.569
23.9022
148.845
23.8939
141.025
23.8856
122.192
23.8773
126.124
23.869
126.815
23.8608
107.827
23.8525
114.164
23.8443
116.653
23.8361
119.557
23.8278
137.364
23.8196
149.581
23.8114
130.929
23.8032
164.528
23.795
180.656
23.7868
207.756
23.7787
239.018
23.7705
282.917
23.7624
314.528
23.7542
337.866
23.7461
337.469
23.7379
243.387
23.7298
165.442
23.7217
116.962
23.7136
105.264
23.7055
82.2528
23.6974
75.9785
23.6893
76.2064
23.6813
83.4402
23.6732
83.9909
23.6651
88.9014
23.6571
120.144
23.649
132.782
23.641
163.834
23.633
191.291
23.625
171.302
23.617
182.152
23.609
175.119
23.601
132.172
23.593
118.131
23.585
74.9546
23.5771
52.0199
23.5691
18.1529
23.5611
end of experiment
